'0:00.000',0.185
'0:00.001',0.185
'0:00.003',0.169
'0:00.004',0.185
'0:00.006',0.185
'0:00.007',0.185
'0:00.008',0.185
'0:00.010',0.185
'0:00.011',0.185
'0:00.013',0.200
'0:00.014',0.200
'0:00.015',0.192
'0:00.017',0.200
'0:00.018',0.192
'0:00.019',0.192
'0:00.021',0.208
'0:00.022',0.215
'0:00.024',0.208
'0:00.025',0.215
'0:00.026',0.215
'0:00.028',0.200
'0:00.029',0.208
'0:00.031',0.208
'0:00.032',0.208
'0:00.033',0.208
'0:00.035',0.200
'0:00.036',0.192
'0:00.038',0.192
'0:00.039',0.208
'0:00.040',0.208
'0:00.042',0.192
'0:00.043',0.215
'0:00.044',0.223
'0:00.046',0.223
'0:00.047',0.223
'0:00.049',0.223
'0:00.050',0.231
'0:00.051',0.231
'0:00.053',0.223
'0:00.054',0.231
'0:00.056',0.231
'0:00.057',0.231
'0:00.058',0.223
'0:00.060',0.231
'0:00.061',0.215
'0:00.063',0.223
'0:00.064',0.231
'0:00.065',0.223
'0:00.067',0.223
'0:00.068',0.223
'0:00.069',0.223
'0:00.071',0.223
'0:00.072',0.223
'0:00.074',0.215
'0:00.075',0.215
'0:00.076',0.215
'0:00.078',0.223
'0:00.079',0.223
'0:00.081',0.215
'0:00.082',0.215
'0:00.083',0.208
'0:00.085',0.208
'0:00.086',0.223
'0:00.088',0.215
'0:00.089',0.208
'0:00.090',0.223
'0:00.092',0.215
'0:00.093',0.208
'0:00.094',0.223
'0:00.096',0.223
'0:00.097',0.215
'0:00.099',0.208
'0:00.100',0.223
'0:00.101',0.223
'0:00.103',0.215
'0:00.104',0.223
'0:00.106',0.215
'0:00.107',0.208
'0:00.108',0.215
'0:00.110',0.223
'0:00.111',0.223
'0:00.113',0.215
'0:00.114',0.223
'0:00.115',0.223
'0:00.117',0.223
'0:00.118',0.223
'0:00.119',0.215
'0:00.121',0.231
'0:00.122',0.223
'0:00.124',0.231
'0:00.125',0.223
'0:00.126',0.231
'0:00.128',0.231
'0:00.129',0.223
'0:00.131',0.223
'0:00.132',0.238
'0:00.133',0.246
'0:00.135',0.231
'0:00.136',0.231
'0:00.138',0.238
'0:00.139',0.231
'0:00.140',0.231
'0:00.142',0.231
'0:00.143',0.223
'0:00.144',0.215
'0:00.146',0.215
'0:00.147',0.215
'0:00.149',0.223
'0:00.150',0.231
'0:00.151',0.223
'0:00.153',0.223
'0:00.154',0.231
'0:00.156',0.246
'0:00.157',0.238
'0:00.158',0.246
'0:00.160',0.262
'0:00.161',0.246
'0:00.163',0.246
'0:00.164',0.254
'0:00.165',0.246
'0:00.167',0.238
'0:00.168',0.238
'0:00.169',0.231
'0:00.171',0.223
'0:00.172',0.223
'0:00.174',0.223
'0:00.175',0.215
'0:00.176',0.215
'0:00.178',0.215
'0:00.179',0.223
'0:00.181',0.231
'0:00.182',0.231
'0:00.183',0.254
'0:00.185',0.262
'0:00.186',0.277
'0:00.188',0.277
'0:00.189',0.269
'0:00.190',0.277
'0:00.192',0.262
'0:00.193',0.262
'0:00.194',0.262
'0:00.196',0.269
'0:00.197',0.277
'0:00.199',0.285
'0:00.200',0.262
'0:00.201',0.254
'0:00.203',0.254
'0:00.204',0.262
'0:00.206',0.246
'0:00.207',0.262
'0:00.208',0.277
'0:00.210',0.262
'0:00.211',0.262
'0:00.213',0.277
'0:00.214',0.277
'0:00.215',0.277
'0:00.217',0.277
'0:00.218',0.277
'0:00.219',0.285
'0:00.221',0.292
'0:00.222',0.292
'0:00.224',0.292
'0:00.225',0.300
'0:00.226',0.285
'0:00.228',0.285
'0:00.229',0.292
'0:00.231',0.308
'0:00.232',0.323
'0:00.233',0.315
'0:00.235',0.300
'0:00.236',0.285
'0:00.238',0.300
'0:00.239',0.308
'0:00.240',0.300
'0:00.242',0.300
'0:00.243',0.285
'0:00.244',0.277
'0:00.246',0.285
'0:00.247',0.292
'0:00.249',0.285
'0:00.250',0.300
'0:00.251',0.285
'0:00.253',0.292
'0:00.254',0.308
'0:00.256',0.315
'0:00.257',0.315
'0:00.258',0.308
'0:00.260',0.308
'0:00.261',0.308
'0:00.263',0.323
'0:00.264',0.308
'0:00.265',0.300
'0:00.267',0.300
'0:00.268',0.300
'0:00.269',0.292
'0:00.271',0.308
'0:00.272',0.308
'0:00.274',0.277
'0:00.275',0.277
'0:00.276',0.285
'0:00.278',0.277
'0:00.279',0.277
'0:00.281',0.277
'0:00.282',0.262
'0:00.283',0.269
'0:00.285',0.262
'0:00.286',0.254
'0:00.288',0.262
'0:00.289',0.269
'0:00.290',0.254
'0:00.292',0.262
'0:00.293',0.246
'0:00.294',0.231
'0:00.296',0.238
'0:00.297',0.231
'0:00.299',0.223
'0:00.300',0.231
'0:00.301',0.238
'0:00.303',0.223
'0:00.304',0.223
'0:00.306',0.231
'0:00.307',0.223
'0:00.308',0.208
'0:00.310',0.208
'0:00.311',0.200
'0:00.313',0.200
'0:00.314',0.192
'0:00.315',0.185
'0:00.317',0.192
'0:00.318',0.192
'0:00.319',0.192
'0:00.321',0.200
'0:00.322',0.192
'0:00.324',0.192
'0:00.325',0.185
'0:00.326',0.185
'0:00.328',0.177
'0:00.329',0.185
'0:00.331',0.200
'0:00.332',0.192
'0:00.333',0.208
'0:00.335',0.223
'0:00.336',0.208
'0:00.338',0.223
'0:00.339',0.231
'0:00.340',0.223
'0:00.342',0.223
'0:00.343',0.231
'0:00.344',0.223
'0:00.346',0.223
'0:00.347',0.238
'0:00.349',0.238
'0:00.350',0.231
'0:00.351',0.246
'0:00.353',0.262
'0:00.354',0.246
'0:00.356',0.254
'0:00.357',0.246
'0:00.358',0.246
'0:00.360',0.254
'0:00.361',0.269
'0:00.363',0.277
'0:00.364',0.292
'0:00.365',0.308
'0:00.367',0.323
'0:00.368',0.338
'0:00.369',0.354
'0:00.371',0.392
'0:00.372',0.392
'0:00.374',0.400
'0:00.375',0.431
'0:00.376',0.462
'0:00.378',0.469
'0:00.379',0.492
'0:00.381',0.515
'0:00.382',0.531
'0:00.383',0.554
'0:00.385',0.585
'0:00.386',0.577
'0:00.388',0.577
'0:00.389',0.569
'0:00.390',0.554
'0:00.392',0.554
'0:00.393',0.569
'0:00.394',0.554
'0:00.396',0.531
'0:00.397',0.531
'0:00.399',0.508
'0:00.400',0.462
'0:00.401',0.438
'0:00.403',0.438
'0:00.404',0.415
'0:00.406',0.392
'0:00.407',0.385
'0:00.408',0.377
'0:00.410',0.369
'0:00.411',0.369
'0:00.413',0.362
'0:00.414',0.354
'0:00.415',0.354
'0:00.417',0.346
'0:00.418',0.331
'0:00.419',0.354
'0:00.421',0.354
'0:00.422',0.331
'0:00.424',0.331
'0:00.425',0.338
'0:00.426',0.331
'0:00.428',0.315
'0:00.429',0.315
'0:00.431',0.315
'0:00.432',0.323
'0:00.433',0.331
'0:00.435',0.308
'0:00.436',0.300
'0:00.438',0.300
'0:00.439',0.292
'0:00.440',0.285
'0:00.442',0.277
'0:00.443',0.277
'0:00.444',0.262
'0:00.446',0.254
'0:00.447',0.238
'0:00.449',0.246
'0:00.450',0.238
'0:00.451',0.238
'0:00.453',0.246
'0:00.454',0.238
'0:00.456',0.231
'0:00.457',0.238
'0:00.458',0.238
'0:00.460',0.231
'0:00.461',0.223
'0:00.463',0.223
'0:00.464',0.223
'0:00.465',0.215
'0:00.467',0.215
'0:00.468',0.215
'0:00.469',0.223
'0:00.471',0.215
'0:00.472',0.215
'0:00.474',0.223
'0:00.475',0.223
'0:00.476',0.223
'0:00.478',0.223
'0:00.479',0.223
'0:00.481',0.223
'0:00.482',0.215
'0:00.483',0.231
'0:00.485',0.215
'0:00.486',0.215
'0:00.488',0.215
'0:00.489',0.223
'0:00.490',0.215
'0:00.492',0.215
'0:00.493',0.208
'0:00.494',0.215
'0:00.496',0.223
'0:00.497',0.208
'0:00.499',0.208
'0:00.500',0.208
'0:00.501',0.192
'0:00.503',0.200
'0:00.504',0.200
'0:00.506',0.192
'0:00.507',0.200
'0:00.508',0.208
'0:00.510',0.208
'0:00.511',0.208
'0:00.513',0.223
'0:00.514',0.223
'0:00.515',0.208
'0:00.517',0.223
'0:00.518',0.223
'0:00.519',0.223
'0:00.521',0.223
'0:00.522',0.223
'0:00.524',0.223
'0:00.525',0.223
'0:00.526',0.215
'0:00.528',0.215
'0:00.529',0.215
'0:00.531',0.215
'0:00.532',0.215
'0:00.533',0.215
'0:00.535',0.215
'0:00.536',0.208
'0:00.538',0.208
'0:00.539',0.208
'0:00.540',0.208
'0:00.542',0.208
'0:00.543',0.208
'0:00.544',0.208
'0:00.546',0.215
'0:00.547',0.208
'0:00.549',0.208
'0:00.550',0.215
'0:00.551',0.215
'0:00.553',0.200
'0:00.554',0.208
'0:00.556',0.215
'0:00.557',0.208
'0:00.558',0.185
'0:00.560',0.192
'0:00.561',0.177
'0:00.563',0.162
'0:00.564',0.177
'0:00.565',0.177
'0:00.567',0.177
'0:00.568',0.169
'0:00.569',0.169
'0:00.571',0.177
'0:00.572',0.169
'0:00.574',0.169
'0:00.575',0.169
'0:00.576',0.162
'0:00.578',0.162
'0:00.579',0.146
'0:00.581',0.162
'0:00.582',0.162
'0:00.583',0.154
'0:00.585',0.154
'0:00.586',0.169
'0:00.588',0.162
'0:00.589',0.146
'0:00.590',0.169
'0:00.592',0.177
'0:00.593',0.162
'0:00.594',0.154
'0:00.596',0.162
'0:00.597',0.162
'0:00.599',0.169
'0:00.600',0.162
'0:00.601',0.154
'0:00.603',0.162
'0:00.604',0.177
'0:00.606',0.169
'0:00.607',0.162
'0:00.608',0.162
'0:00.610',0.162
'0:00.611',0.154
'0:00.613',0.154
'0:00.614',0.169
'0:00.615',0.169
'0:00.617',0.154
'0:00.618',0.154
'0:00.619',0.162
'0:00.621',0.154
'0:00.622',0.138
'0:00.624',0.146
'0:00.625',0.146
'0:00.626',0.138
'0:00.628',0.138
'0:00.629',0.138
'0:00.631',0.131
'0:00.632',0.123
'0:00.633',0.123
'0:00.635',0.115
'0:00.636',0.115
'0:00.638',0.131
'0:00.639',0.123
'0:00.640',0.123
'0:00.642',0.131
'0:00.643',0.123
'0:00.644',0.100
'0:00.646',0.100
'0:00.647',0.092
'0:00.649',0.092
'0:00.650',0.100
'0:00.651',0.092
'0:00.653',0.092
'0:00.654',0.085
'0:00.656',0.085
'0:00.657',0.085
'0:00.658',0.092
'0:00.660',0.100
'0:00.661',0.100
'0:00.663',0.100
'0:00.664',0.100
'0:00.665',0.108
'0:00.667',0.092
'0:00.668',0.115
'0:00.669',0.131
'0:00.671',0.123
'0:00.672',0.123
'0:00.674',0.115
'0:00.675',0.123
'0:00.676',0.115
'0:00.678',0.123
'0:00.679',0.123
'0:00.681',0.123
'0:00.682',0.123
'0:00.683',0.138
'0:00.685',0.123
'0:00.686',0.138
'0:00.688',0.146
'0:00.689',0.146
'0:00.690',0.138
'0:00.692',0.146
'0:00.693',0.154
'0:00.694',0.146
'0:00.696',0.154
'0:00.697',0.154
'0:00.699',0.154
'0:00.700',0.162
'0:00.701',0.162
'0:00.703',0.162
'0:00.704',0.177
'0:00.706',0.177
'0:00.707',0.185
'0:00.708',0.185
'0:00.710',0.192
'0:00.711',0.185
'0:00.713',0.185
'0:00.714',0.177
'0:00.715',0.185
'0:00.717',0.185
'0:00.718',0.200
'0:00.719',0.200
'0:00.721',0.208
'0:00.722',0.208
'0:00.724',0.208
'0:00.725',0.215
'0:00.726',0.223
'0:00.728',0.215
'0:00.729',0.223
'0:00.731',0.223
'0:00.732',0.215
'0:00.733',0.215
'0:00.735',0.223
'0:00.736',0.223
'0:00.738',0.223
'0:00.739',0.231
'0:00.740',0.238
'0:00.742',0.231
'0:00.743',0.223
'0:00.744',0.238
'0:00.746',0.238
'0:00.747',0.246
'0:00.749',0.246
'0:00.750',0.238
'0:00.751',0.238
'0:00.753',0.231
'0:00.754',0.238
'0:00.756',0.238
'0:00.757',0.231
'0:00.758',0.238
'0:00.760',0.231
'0:00.761',0.231
'0:00.763',0.238
'0:00.764',0.223
'0:00.765',0.231
'0:00.767',0.231
'0:00.768',0.223
'0:00.769',0.223
'0:00.771',0.231
'0:00.772',0.223
'0:00.774',0.223
'0:00.775',0.231
'0:00.776',0.231
'0:00.778',0.215
'0:00.779',0.215
'0:00.781',0.223
'0:00.782',0.231
'0:00.783',0.223
'0:00.785',0.231
'0:00.786',0.231
'0:00.788',0.223
'0:00.789',0.223
'0:00.790',0.223
'0:00.792',0.223
'0:00.793',0.208
'0:00.794',0.208
'0:00.796',0.208
'0:00.797',0.215
'0:00.799',0.215
'0:00.800',0.208
'0:00.801',0.208
'0:00.803',0.223
'0:00.804',0.215
'0:00.806',0.208
'0:00.807',0.208
'0:00.808',0.223
'0:00.810',0.231
'0:00.811',0.238
'0:00.813',0.238
'0:00.814',0.238
'0:00.815',0.246
'0:00.817',0.231
'0:00.818',0.223
'0:00.819',0.215
'0:00.821',0.223
'0:00.822',0.208
'0:00.824',0.208
'0:00.825',0.215
'0:00.826',0.215
'0:00.828',0.215
'0:00.829',0.223
'0:00.831',0.223
'0:00.832',0.215
'0:00.833',0.223
'0:00.835',0.223
'0:00.836',0.208
'0:00.838',0.223
'0:00.839',0.238
'0:00.840',0.231
'0:00.842',0.223
'0:00.843',0.215
'0:00.844',0.223
'0:00.846',0.223
'0:00.847',0.215
'0:00.849',0.215
'0:00.850',0.215
'0:00.851',0.215
'0:00.853',0.208
'0:00.854',0.208
'0:00.856',0.215
'0:00.857',0.200
'0:00.858',0.200
'0:00.860',0.200
'0:00.861',0.192
'0:00.863',0.200
'0:00.864',0.200
'0:00.865',0.192
'0:00.867',0.192
'0:00.868',0.200
'0:00.869',0.200
'0:00.871',0.200
'0:00.872',0.208
'0:00.874',0.208
'0:00.875',0.200
'0:00.876',0.200
'0:00.878',0.200
'0:00.879',0.192
'0:00.881',0.200
'0:00.882',0.200
'0:00.883',0.208
'0:00.885',0.215
'0:00.886',0.231
'0:00.888',0.238
'0:00.889',0.269
'0:00.890',0.285
'0:00.892',0.285
'0:00.893',0.308
'0:00.894',0.323
'0:00.896',0.338
'0:00.897',0.331
'0:00.899',0.338
'0:00.900',0.338
'0:00.901',0.346
'0:00.903',0.354
'0:00.904',0.346
'0:00.906',0.331
'0:00.907',0.315
'0:00.908',0.292
'0:00.910',0.269
'0:00.911',0.238
'0:00.913',0.223
'0:00.914',0.208
'0:00.915',0.185
'0:00.917',0.146
'0:00.918',0.092
'0:00.919',0.054
'0:00.921',0.008
'0:00.922',-0.023
'0:00.924',-0.062
'0:00.925',-0.115
'0:00.926',-0.177
'0:00.928',-0.231
'0:00.929',-0.300
'0:00.931',-0.362
'0:00.932',-0.423
'0:00.933',-0.477
'0:00.935',-0.515
'0:00.936',-0.515
'0:00.938',-0.492
'0:00.939',-0.469
'0:00.940',-0.477
'0:00.942',-0.462
'0:00.943',-0.438
'0:00.944',-0.431
'0:00.946',-0.415
'0:00.947',-0.369
'0:00.949',-0.346
'0:00.950',-0.331
'0:00.951',-0.308
'0:00.953',-0.269
'0:00.954',-0.238
'0:00.956',-0.200
'0:00.957',-0.154
'0:00.958',-0.108
'0:00.960',-0.069
'0:00.961',-0.031
'0:00.963',0.023
'0:00.964',0.069
'0:00.965',0.092
'0:00.967',0.108
'0:00.968',0.108
'0:00.969',0.115
'0:00.971',0.138
'0:00.972',0.154
'0:00.974',0.162
'0:00.975',0.162
'0:00.976',0.169
'0:00.978',0.177
'0:00.979',0.177
'0:00.981',0.192
'0:00.982',0.200
'0:00.983',0.208
'0:00.985',0.208
'0:00.986',0.215
'0:00.988',0.223
'0:00.989',0.215
'0:00.990',0.215
'0:00.992',0.215
'0:00.993',0.215
'0:00.994',0.215
'0:00.996',0.223
'0:00.997',0.223
'0:00.999',0.223
'0:01.000',0.231
'0:01.001',0.231
'0:01.003',0.238
'0:01.004',0.238
'0:01.006',0.246
'0:01.007',0.246
'0:01.008',0.238
'0:01.010',0.231
'0:01.011',0.246
'0:01.013',0.238
'0:01.014',0.238
'0:01.015',0.238
'0:01.017',0.238
'0:01.018',0.238
'0:01.019',0.262
'0:01.021',0.269
'0:01.022',0.262
'0:01.024',0.269
'0:01.025',0.269
'0:01.026',0.277
'0:01.028',0.269
'0:01.029',0.277
'0:01.031',0.277
'0:01.032',0.285
'0:01.033',0.277
'0:01.035',0.269
'0:01.036',0.277
'0:01.038',0.285
'0:01.039',0.277
'0:01.040',0.277
'0:01.042',0.285
'0:01.043',0.277
'0:01.044',0.269
'0:01.046',0.277
'0:01.047',0.285
'0:01.049',0.285
'0:01.050',0.300
'0:01.051',0.300
'0:01.053',0.308
'0:01.054',0.308
'0:01.056',0.308
'0:01.057',0.308
'0:01.058',0.308
'0:01.060',0.300
'0:01.061',0.300
'0:01.063',0.300
'0:01.064',0.300
'0:01.065',0.292
'0:01.067',0.300
'0:01.068',0.300
'0:01.069',0.300
'0:01.071',0.300
'0:01.072',0.300
'0:01.074',0.300
'0:01.075',0.292
'0:01.076',0.277
'0:01.078',0.300
'0:01.079',0.300
'0:01.081',0.292
'0:01.082',0.300
'0:01.083',0.292
'0:01.085',0.300
'0:01.086',0.300
'0:01.088',0.292
'0:01.089',0.308
'0:01.090',0.331
'0:01.092',0.331
'0:01.093',0.323
'0:01.094',0.331
'0:01.096',0.323
'0:01.097',0.308
'0:01.099',0.323
'0:01.100',0.323
'0:01.101',0.308
'0:01.103',0.300
'0:01.104',0.300
'0:01.106',0.308
'0:01.107',0.315
'0:01.108',0.315
'0:01.110',0.315
'0:01.111',0.323
'0:01.113',0.331
'0:01.114',0.338
'0:01.115',0.338
'0:01.117',0.346
'0:01.118',0.354
'0:01.119',0.369
'0:01.121',0.377
'0:01.122',0.385
'0:01.124',0.369
'0:01.125',0.377
'0:01.126',0.385
'0:01.128',0.392
'0:01.129',0.385
'0:01.131',0.385
'0:01.132',0.377
'0:01.133',0.392
'0:01.135',0.400
'0:01.136',0.392
'0:01.138',0.392
'0:01.139',0.392
'0:01.140',0.400
'0:01.142',0.400
'0:01.143',0.400
'0:01.144',0.415
'0:01.146',0.423
'0:01.147',0.423
'0:01.149',0.423
'0:01.150',0.423
'0:01.151',0.431
'0:01.153',0.431
'0:01.154',0.446
'0:01.156',0.454
'0:01.157',0.446
'0:01.158',0.446
'0:01.160',0.454
'0:01.161',0.446
'0:01.163',0.446
'0:01.164',0.446
'0:01.165',0.454
'0:01.167',0.454
'0:01.168',0.454
'0:01.169',0.462
'0:01.171',0.462
'0:01.172',0.462
'0:01.174',0.477
'0:01.175',0.469
'0:01.176',0.469
'0:01.178',0.469
'0:01.179',0.462
'0:01.181',0.462
'0:01.182',0.469
'0:01.183',0.462
'0:01.185',0.462
'0:01.186',0.462
'0:01.188',0.469
'0:01.189',0.446
'0:01.190',0.454
'0:01.192',0.469
'0:01.193',0.462
'0:01.194',0.454
'0:01.196',0.446
'0:01.197',0.438
'0:01.199',0.431
'0:01.200',0.423
'0:01.201',0.415
'0:01.203',0.408
'0:01.204',0.415
'0:01.206',0.408
'0:01.207',0.408
'0:01.208',0.400
'0:01.210',0.400
'0:01.211',0.400
'0:01.213',0.400
'0:01.214',0.385
'0:01.215',0.377
'0:01.217',0.385
'0:01.218',0.369
'0:01.219',0.354
'0:01.221',0.369
'0:01.222',0.362
'0:01.224',0.362
'0:01.225',0.354
'0:01.226',0.338
'0:01.228',0.331
'0:01.229',0.331
'0:01.231',0.323
'0:01.232',0.315
'0:01.233',0.315
'0:01.235',0.308
'0:01.236',0.300
'0:01.238',0.300
'0:01.239',0.292
'0:01.240',0.285
'0:01.242',0.277
'0:01.243',0.269
'0:01.244',0.269
'0:01.246',0.262
'0:01.247',0.269
'0:01.249',0.254
'0:01.250',0.238
'0:01.251',0.238
'0:01.253',0.246
'0:01.254',0.231
'0:01.256',0.231
'0:01.257',0.231
'0:01.258',0.238
'0:01.260',0.231
'0:01.261',0.215
'0:01.263',0.215
'0:01.264',0.223
'0:01.265',0.215
'0:01.267',0.208
'0:01.268',0.215
'0:01.269',0.223
'0:01.271',0.215
'0:01.272',0.215
'0:01.274',0.223
'0:01.275',0.223
'0:01.276',0.238
'0:01.278',0.238
'0:01.279',0.238
'0:01.281',0.223
'0:01.282',0.223
'0:01.283',0.223
'0:01.285',0.231
'0:01.286',0.215
'0:01.288',0.208
'0:01.289',0.208
'0:01.290',0.208
'0:01.292',0.208
'0:01.293',0.208
'0:01.294',0.200
'0:01.296',0.192
'0:01.297',0.200
'0:01.299',0.200
'0:01.300',0.208
'0:01.301',0.208
'0:01.303',0.215
'0:01.304',0.215
'0:01.306',0.215
'0:01.307',0.223
'0:01.308',0.223
'0:01.310',0.223
'0:01.311',0.215
'0:01.313',0.223
'0:01.314',0.231
'0:01.315',0.238
'0:01.317',0.231
'0:01.318',0.223
'0:01.319',0.223
'0:01.321',0.223
'0:01.322',0.246
'0:01.324',0.238
'0:01.325',0.238
'0:01.326',0.238
'0:01.328',0.231
'0:01.329',0.223
'0:01.331',0.231
'0:01.332',0.223
'0:01.333',0.223
'0:01.335',0.231
'0:01.336',0.238
'0:01.338',0.215
'0:01.339',0.215
'0:01.340',0.208
'0:01.342',0.215
'0:01.343',0.208
'0:01.344',0.200
'0:01.346',0.192
'0:01.347',0.192
'0:01.349',0.200
'0:01.350',0.200
'0:01.351',0.200
'0:01.353',0.200
'0:01.354',0.208
'0:01.356',0.208
'0:01.357',0.215
'0:01.358',0.208
'0:01.360',0.208
'0:01.361',0.215
'0:01.363',0.223
'0:01.364',0.231
'0:01.365',0.215
'0:01.367',0.215
'0:01.368',0.231
'0:01.369',0.223
'0:01.371',0.200
'0:01.372',0.208
'0:01.374',0.215
'0:01.375',0.200
'0:01.376',0.200
'0:01.378',0.200
'0:01.379',0.192
'0:01.381',0.177
'0:01.382',0.177
'0:01.383',0.185
'0:01.385',0.177
'0:01.386',0.177
'0:01.388',0.177
'0:01.389',0.177
'0:01.390',0.185
'0:01.392',0.192
'0:01.393',0.185
'0:01.394',0.185
'0:01.396',0.185
'0:01.397',0.185
'0:01.399',0.177
'0:01.400',0.185
'0:01.401',0.192
'0:01.403',0.192
'0:01.404',0.185
'0:01.406',0.185
'0:01.407',0.185
'0:01.408',0.185
'0:01.410',0.185
'0:01.411',0.185
'0:01.413',0.185
'0:01.414',0.185
'0:01.415',0.185
'0:01.417',0.192
'0:01.418',0.200
'0:01.419',0.200
'0:01.421',0.200
'0:01.422',0.208
'0:01.424',0.200
'0:01.425',0.192
'0:01.426',0.185
'0:01.428',0.192
'0:01.429',0.192
'0:01.431',0.177
'0:01.432',0.192
'0:01.433',0.192
'0:01.435',0.185
'0:01.436',0.185
'0:01.438',0.192
'0:01.439',0.192
'0:01.440',0.177
'0:01.442',0.169
'0:01.443',0.169
'0:01.444',0.185
'0:01.446',0.185
'0:01.447',0.177
'0:01.449',0.177
'0:01.450',0.185
'0:01.451',0.185
'0:01.453',0.177
'0:01.454',0.185
'0:01.456',0.185
'0:01.457',0.185
'0:01.458',0.185
'0:01.460',0.192
'0:01.461',0.185
'0:01.463',0.185
'0:01.464',0.192
'0:01.465',0.185
'0:01.467',0.185
'0:01.468',0.185
'0:01.469',0.185
'0:01.471',0.185
'0:01.472',0.177
'0:01.474',0.185
'0:01.475',0.185
'0:01.476',0.185
'0:01.478',0.177
'0:01.479',0.185
'0:01.481',0.192
'0:01.482',0.185
'0:01.483',0.185
'0:01.485',0.192
'0:01.486',0.185
'0:01.488',0.177
'0:01.489',0.177
'0:01.490',0.177
'0:01.492',0.169
'0:01.493',0.162
'0:01.494',0.177
'0:01.496',0.177
'0:01.497',0.169
'0:01.499',0.162
'0:01.500',0.177
'0:01.501',0.177
'0:01.503',0.185
'0:01.504',0.185
'0:01.506',0.185
'0:01.507',0.185
'0:01.508',0.192
'0:01.510',0.200
'0:01.511',0.208
'0:01.513',0.208
'0:01.514',0.208
'0:01.515',0.200
'0:01.517',0.208
'0:01.518',0.208
'0:01.519',0.200
'0:01.521',0.200
'0:01.522',0.192
'0:01.524',0.208
'0:01.525',0.192
'0:01.526',0.192
'0:01.528',0.192
'0:01.529',0.192
'0:01.531',0.192
'0:01.532',0.185
'0:01.533',0.177
'0:01.535',0.200
'0:01.536',0.192
'0:01.538',0.185
'0:01.539',0.208
'0:01.540',0.215
'0:01.542',0.208
'0:01.543',0.208
'0:01.544',0.208
'0:01.546',0.208
'0:01.547',0.200
'0:01.549',0.208
'0:01.550',0.223
'0:01.551',0.200
'0:01.553',0.208
'0:01.554',0.200
'0:01.556',0.215
'0:01.557',0.215
'0:01.558',0.215
'0:01.560',0.223
'0:01.561',0.215
'0:01.563',0.215
'0:01.564',0.223
'0:01.565',0.215
'0:01.567',0.215
'0:01.568',0.208
'0:01.569',0.215
'0:01.571',0.215
'0:01.572',0.208
'0:01.574',0.215
'0:01.575',0.215
'0:01.576',0.215
'0:01.578',0.223
'0:01.579',0.215
'0:01.581',0.215
'0:01.582',0.215
'0:01.583',0.208
'0:01.585',0.208
'0:01.586',0.208
'0:01.588',0.215
'0:01.589',0.215
'0:01.590',0.208
'0:01.592',0.208
'0:01.593',0.208
'0:01.594',0.215
'0:01.596',0.208
'0:01.597',0.200
'0:01.599',0.208
'0:01.600',0.215
'0:01.601',0.200
'0:01.603',0.200
'0:01.604',0.215
'0:01.606',0.208
'0:01.607',0.208
'0:01.608',0.208
'0:01.610',0.208
'0:01.611',0.208
'0:01.613',0.215
'0:01.614',0.208
'0:01.615',0.192
'0:01.617',0.200
'0:01.618',0.208
'0:01.619',0.200
'0:01.621',0.200
'0:01.622',0.200
'0:01.624',0.200
'0:01.625',0.200
'0:01.626',0.208
'0:01.628',0.208
'0:01.629',0.215
'0:01.631',0.223
'0:01.632',0.223
'0:01.633',0.215
'0:01.635',0.223
'0:01.636',0.223
'0:01.638',0.215
'0:01.639',0.215
'0:01.640',0.208
'0:01.642',0.200
'0:01.643',0.200
'0:01.644',0.208
'0:01.646',0.208
'0:01.647',0.208
'0:01.649',0.223
'0:01.650',0.223
'0:01.651',0.215
'0:01.653',0.238
'0:01.654',0.238
'0:01.656',0.231
'0:01.657',0.238
'0:01.658',0.246
'0:01.660',0.223
'0:01.661',0.238
'0:01.663',0.246
'0:01.664',0.223
'0:01.665',0.223
'0:01.667',0.231
'0:01.668',0.223
'0:01.669',0.215
'0:01.671',0.231
'0:01.672',0.231
'0:01.674',0.223
'0:01.675',0.231
'0:01.676',0.238
'0:01.678',0.238
'0:01.679',0.238
'0:01.681',0.262
'0:01.682',0.262
'0:01.683',0.269
'0:01.685',0.269
'0:01.686',0.277
'0:01.688',0.269
'0:01.689',0.269
'0:01.690',0.277
'0:01.692',0.277
'0:01.693',0.285
'0:01.694',0.262
'0:01.696',0.262
'0:01.697',0.277
'0:01.699',0.269
'0:01.700',0.262
'0:01.701',0.254
'0:01.703',0.254
'0:01.704',0.254
'0:01.706',0.254
'0:01.707',0.269
'0:01.708',0.262
'0:01.710',0.269
'0:01.711',0.277
'0:01.713',0.262
'0:01.714',0.277
'0:01.715',0.277
'0:01.717',0.277
'0:01.718',0.285
'0:01.719',0.300
'0:01.721',0.308
'0:01.722',0.300
'0:01.724',0.292
'0:01.725',0.300
'0:01.726',0.308
'0:01.728',0.308
'0:01.729',0.308
'0:01.731',0.292
'0:01.732',0.308
'0:01.733',0.300
'0:01.735',0.300
'0:01.736',0.300
'0:01.738',0.292
'0:01.739',0.285
'0:01.740',0.277
'0:01.742',0.277
'0:01.743',0.285
'0:01.744',0.292
'0:01.746',0.292
'0:01.747',0.285
'0:01.749',0.292
'0:01.750',0.300
'0:01.751',0.300
'0:01.753',0.300
'0:01.754',0.308
'0:01.756',0.300
'0:01.757',0.292
'0:01.758',0.300
'0:01.760',0.300
'0:01.761',0.292
'0:01.763',0.292
'0:01.764',0.292
'0:01.765',0.277
'0:01.767',0.292
'0:01.768',0.292
'0:01.769',0.292
'0:01.771',0.269
'0:01.772',0.285
'0:01.774',0.277
'0:01.775',0.269
'0:01.776',0.269
'0:01.778',0.262
'0:01.779',0.254
'0:01.781',0.246
'0:01.782',0.262
'0:01.783',0.262
'0:01.785',0.246
'0:01.786',0.246
'0:01.788',0.238
'0:01.789',0.238
'0:01.790',0.238
'0:01.792',0.231
'0:01.793',0.231
'0:01.794',0.238
'0:01.796',0.231
'0:01.797',0.223
'0:01.799',0.238
'0:01.800',0.238
'0:01.801',0.231
'0:01.803',0.223
'0:01.804',0.231
'0:01.806',0.223
'0:01.807',0.215
'0:01.808',0.215
'0:01.810',0.208
'0:01.811',0.200
'0:01.813',0.200
'0:01.814',0.208
'0:01.815',0.208
'0:01.817',0.208
'0:01.818',0.215
'0:01.819',0.208
'0:01.821',0.208
'0:01.822',0.208
'0:01.824',0.208
'0:01.825',0.215
'0:01.826',0.223
'0:01.828',0.231
'0:01.829',0.231
'0:01.831',0.238
'0:01.832',0.238
'0:01.833',0.238
'0:01.835',0.246
'0:01.836',0.246
'0:01.838',0.231
'0:01.839',0.246
'0:01.840',0.246
'0:01.842',0.231
'0:01.843',0.238
'0:01.844',0.254
'0:01.846',0.238
'0:01.847',0.246
'0:01.849',0.246
'0:01.850',0.246
'0:01.851',0.246
'0:01.853',0.254
'0:01.854',0.262
'0:01.856',0.262
'0:01.857',0.262
'0:01.858',0.269
'0:01.860',0.285
'0:01.861',0.300
'0:01.863',0.315
'0:01.864',0.331
'0:01.865',0.346
'0:01.867',0.362
'0:01.868',0.377
'0:01.869',0.392
'0:01.871',0.415
'0:01.872',0.431
'0:01.874',0.446
'0:01.875',0.477
'0:01.876',0.500
'0:01.878',0.508
'0:01.879',0.531
'0:01.881',0.562
'0:01.882',0.569
'0:01.883',0.562
'0:01.885',0.562
'0:01.886',0.562
'0:01.888',0.562
'0:01.889',0.554
'0:01.890',0.554
'0:01.892',0.538
'0:01.893',0.523
'0:01.894',0.500
'0:01.896',0.477
'0:01.897',0.469
'0:01.899',0.431
'0:01.900',0.400
'0:01.901',0.385
'0:01.903',0.385
'0:01.904',0.377
'0:01.906',0.377
'0:01.907',0.369
'0:01.908',0.354
'0:01.910',0.346
'0:01.911',0.346
'0:01.913',0.346
'0:01.914',0.346
'0:01.915',0.338
'0:01.917',0.346
'0:01.918',0.338
'0:01.919',0.331
'0:01.921',0.338
'0:01.922',0.338
'0:01.924',0.331
'0:01.925',0.323
'0:01.926',0.331
'0:01.928',0.331
'0:01.929',0.323
'0:01.931',0.331
'0:01.932',0.323
'0:01.933',0.292
'0:01.935',0.292
'0:01.936',0.292
'0:01.938',0.285
'0:01.939',0.269
'0:01.940',0.262
'0:01.942',0.246
'0:01.943',0.254
'0:01.944',0.246
'0:01.946',0.238
'0:01.947',0.246
'0:01.949',0.254
'0:01.950',0.238
'0:01.951',0.231
'0:01.953',0.246
'0:01.954',0.238
'0:01.956',0.238
'0:01.957',0.238
'0:01.958',0.238
'0:01.960',0.231
'0:01.961',0.231
'0:01.963',0.215
'0:01.964',0.223
'0:01.965',0.215
'0:01.967',0.215
'0:01.968',0.215
'0:01.969',0.223
'0:01.971',0.215
'0:01.972',0.208
'0:01.974',0.223
'0:01.975',0.223
'0:01.976',0.223
'0:01.978',0.223
'0:01.979',0.223
'0:01.981',0.215
'0:01.982',0.215
'0:01.983',0.223
'0:01.985',0.223
'0:01.986',0.215
'0:01.988',0.215
'0:01.989',0.223
'0:01.990',0.215
'0:01.992',0.223
'0:01.993',0.223
'0:01.994',0.215
'0:01.996',0.208
'0:01.997',0.208
'0:01.999',0.208
'0:02.000',0.192
'0:02.001',0.200
'0:02.003',0.208
'0:02.004',0.192
'0:02.006',0.192
'0:02.007',0.200
'0:02.008',0.223
'0:02.010',0.215
'0:02.011',0.215
'0:02.013',0.223
'0:02.014',0.215
'0:02.015',0.215
'0:02.017',0.215
'0:02.018',0.215
'0:02.019',0.215
'0:02.021',0.215
'0:02.022',0.231
'0:02.024',0.231
'0:02.025',0.223
'0:02.026',0.215
'0:02.028',0.223
'0:02.029',0.215
'0:02.031',0.200
'0:02.032',0.192
'0:02.033',0.200
'0:02.035',0.200
'0:02.036',0.200
'0:02.038',0.192
'0:02.039',0.200
'0:02.040',0.200
'0:02.042',0.200
'0:02.043',0.185
'0:02.044',0.200
'0:02.046',0.200
'0:02.047',0.200
'0:02.049',0.192
'0:02.050',0.192
'0:02.051',0.208
'0:02.053',0.200
'0:02.054',0.185
'0:02.056',0.185
'0:02.057',0.185
'0:02.058',0.185
'0:02.060',0.169
'0:02.061',0.162
'0:02.063',0.162
'0:02.064',0.169
'0:02.065',0.177
'0:02.067',0.162
'0:02.068',0.169
'0:02.069',0.169
'0:02.071',0.162
'0:02.072',0.154
'0:02.074',0.154
'0:02.075',0.162
'0:02.076',0.169
'0:02.078',0.169
'0:02.079',0.169
'0:02.081',0.177
'0:02.082',0.169
'0:02.083',0.162
'0:02.085',0.169
'0:02.086',0.177
'0:02.088',0.162
'0:02.089',0.169
'0:02.090',0.169
'0:02.092',0.162
'0:02.093',0.162
'0:02.094',0.162
'0:02.096',0.162
'0:02.097',0.154
'0:02.099',0.162
'0:02.100',0.154
'0:02.101',0.154
'0:02.103',0.162
'0:02.104',0.154
'0:02.106',0.154
'0:02.107',0.162
'0:02.108',0.162
'0:02.110',0.154
'0:02.111',0.162
'0:02.113',0.162
'0:02.114',0.146
'0:02.115',0.146
'0:02.117',0.154
'0:02.118',0.146
'0:02.119',0.131
'0:02.121',0.138
'0:02.122',0.131
'0:02.124',0.123
'0:02.125',0.115
'0:02.126',0.131
'0:02.128',0.123
'0:02.129',0.123
'0:02.131',0.115
'0:02.132',0.108
'0:02.133',0.100
'0:02.135',0.100
'0:02.136',0.092
'0:02.138',0.100
'0:02.139',0.092
'0:02.140',0.100
'0:02.142',0.092
'0:02.143',0.092
'0:02.144',0.077
'0:02.146',0.069
'0:02.147',0.069
'0:02.149',0.069
'0:02.150',0.069
'0:02.151',0.069
'0:02.153',0.085
'0:02.154',0.077
'0:02.156',0.077
'0:02.157',0.069
'0:02.158',0.085
'0:02.160',0.092
'0:02.161',0.092
'0:02.163',0.092
'0:02.164',0.100
'0:02.165',0.092
'0:02.167',0.108
'0:02.168',0.115
'0:02.169',0.123
'0:02.171',0.131
'0:02.172',0.138
'0:02.174',0.131
'0:02.175',0.123
'0:02.176',0.131
'0:02.178',0.131
'0:02.179',0.123
'0:02.181',0.123
'0:02.182',0.123
'0:02.183',0.131
'0:02.185',0.154
'0:02.186',0.146
'0:02.188',0.154
'0:02.189',0.162
'0:02.190',0.162
'0:02.192',0.154
'0:02.193',0.162
'0:02.194',0.162
'0:02.196',0.162
'0:02.197',0.154
'0:02.199',0.169
'0:02.200',0.169
'0:02.201',0.177
'0:02.203',0.185
'0:02.204',0.177
'0:02.206',0.177
'0:02.207',0.185
'0:02.208',0.192
'0:02.210',0.192
'0:02.211',0.200
'0:02.213',0.200
'0:02.214',0.192
'0:02.215',0.200
'0:02.217',0.208
'0:02.218',0.215
'0:02.219',0.215
'0:02.221',0.215
'0:02.222',0.215
'0:02.224',0.223
'0:02.225',0.208
'0:02.226',0.215
'0:02.228',0.215
'0:02.229',0.200
'0:02.231',0.200
'0:02.232',0.215
'0:02.233',0.215
'0:02.235',0.208
'0:02.236',0.208
'0:02.238',0.215
'0:02.239',0.215
'0:02.240',0.215
'0:02.242',0.223
'0:02.243',0.231
'0:02.244',0.223
'0:02.246',0.215
'0:02.247',0.215
'0:02.249',0.215
'0:02.250',0.215
'0:02.251',0.215
'0:02.253',0.215
'0:02.254',0.208
'0:02.256',0.215
'0:02.257',0.208
'0:02.258',0.185
'0:02.260',0.192
'0:02.261',0.200
'0:02.263',0.208
'0:02.264',0.208
'0:02.265',0.208
'0:02.267',0.208
'0:02.268',0.215
'0:02.269',0.215
'0:02.271',0.208
'0:02.272',0.208
'0:02.274',0.215
'0:02.275',0.208
'0:02.276',0.215
'0:02.278',0.231
'0:02.279',0.223
'0:02.281',0.223
'0:02.282',0.231
'0:02.283',0.223
'0:02.285',0.215
'0:02.286',0.223
'0:02.288',0.208
'0:02.289',0.208
'0:02.290',0.208
'0:02.292',0.208
'0:02.293',0.200
'0:02.294',0.208
'0:02.296',0.215
'0:02.297',0.200
'0:02.299',0.208
'0:02.300',0.200
'0:02.301',0.200
'0:02.303',0.208
'0:02.304',0.215
'0:02.306',0.215
'0:02.307',0.215
'0:02.308',0.215
'0:02.310',0.223
'0:02.311',0.223
'0:02.313',0.223
'0:02.314',0.215
'0:02.315',0.215
'0:02.317',0.215
'0:02.318',0.208
'0:02.319',0.200
'0:02.321',0.200
'0:02.322',0.200
'0:02.324',0.208
'0:02.325',0.215
'0:02.326',0.223
'0:02.328',0.223
'0:02.329',0.223
'0:02.331',0.215
'0:02.332',0.215
'0:02.333',0.231
'0:02.335',0.231
'0:02.336',0.223
'0:02.338',0.231
'0:02.339',0.238
'0:02.340',0.223
'0:02.342',0.223
'0:02.343',0.223
'0:02.344',0.223
'0:02.346',0.215
'0:02.347',0.215
'0:02.349',0.215
'0:02.350',0.215
'0:02.351',0.200
'0:02.353',0.200
'0:02.354',0.208
'0:02.356',0.208
'0:02.357',0.208
'0:02.358',0.208
'0:02.360',0.192
'0:02.361',0.200
'0:02.363',0.208
'0:02.364',0.200
'0:02.365',0.200
'0:02.367',0.208
'0:02.368',0.208
'0:02.369',0.200
'0:02.371',0.208
'0:02.372',0.208
'0:02.374',0.208
'0:02.375',0.208
'0:02.376',0.208
'0:02.378',0.208
'0:02.379',0.223
'0:02.381',0.231
'0:02.382',0.238
'0:02.383',0.254
'0:02.385',0.269
'0:02.386',0.277
'0:02.388',0.285
'0:02.389',0.308
'0:02.390',0.315
'0:02.392',0.315
'0:02.393',0.315
'0:02.394',0.323
'0:02.396',0.323
'0:02.397',0.331
'0:02.399',0.338
'0:02.400',0.338
'0:02.401',0.331
'0:02.403',0.315
'0:02.404',0.285
'0:02.406',0.269
'0:02.407',0.238
'0:02.408',0.215
'0:02.410',0.200
'0:02.411',0.177
'0:02.413',0.131
'0:02.414',0.085
'0:02.415',0.046
'0:02.417',0.015
'0:02.418',-0.031
'0:02.419',-0.062
'0:02.421',-0.115
'0:02.422',-0.169
'0:02.424',-0.223
'0:02.425',-0.285
'0:02.426',-0.346
'0:02.428',-0.408
'0:02.429',-0.477
'0:02.431',-0.515
'0:02.432',-0.523
'0:02.433',-0.492
'0:02.435',-0.477
'0:02.436',-0.477
'0:02.438',-0.462
'0:02.439',-0.446
'0:02.440',-0.438
'0:02.442',-0.423
'0:02.443',-0.377
'0:02.444',-0.346
'0:02.446',-0.331
'0:02.447',-0.308
'0:02.449',-0.277
'0:02.450',-0.262
'0:02.451',-0.223
'0:02.453',-0.169
'0:02.454',-0.123
'0:02.456',-0.085
'0:02.457',-0.031
'0:02.458',0.008
'0:02.460',0.054
'0:02.461',0.092
'0:02.463',0.108
'0:02.464',0.100
'0:02.465',0.115
'0:02.467',0.131
'0:02.468',0.138
'0:02.469',0.162
'0:02.471',0.177
'0:02.472',0.177
'0:02.474',0.185
'0:02.475',0.192
'0:02.476',0.200
'0:02.478',0.208
'0:02.479',0.215
'0:02.481',0.231
'0:02.482',0.223
'0:02.483',0.231
'0:02.485',0.231
'0:02.486',0.231
'0:02.488',0.238
'0:02.489',0.231
'0:02.490',0.223
'0:02.492',0.231
'0:02.493',0.238
'0:02.494',0.231
'0:02.496',0.238
'0:02.497',0.254
'0:02.499',0.246
'0:02.500',0.246
'0:02.501',0.254
'0:02.503',0.254
'0:02.504',0.246
'0:02.506',0.254
'0:02.507',0.254
'0:02.508',0.254
'0:02.510',0.254
'0:02.511',0.246
'0:02.513',0.254
'0:02.514',0.246
'0:02.515',0.254
'0:02.517',0.269
'0:02.518',0.262
'0:02.519',0.269
'0:02.521',0.277
'0:02.522',0.269
'0:02.524',0.269
'0:02.525',0.262
'0:02.526',0.262
'0:02.528',0.262
'0:02.529',0.262
'0:02.531',0.269
'0:02.532',0.269
'0:02.533',0.269
'0:02.535',0.277
'0:02.536',0.277
'0:02.538',0.277
'0:02.539',0.277
'0:02.540',0.277
'0:02.542',0.285
'0:02.543',0.277
'0:02.544',0.285
'0:02.546',0.292
'0:02.547',0.285
'0:02.549',0.277
'0:02.550',0.292
'0:02.551',0.300
'0:02.553',0.308
'0:02.554',0.308
'0:02.556',0.300
'0:02.557',0.300
'0:02.558',0.308
'0:02.560',0.308
'0:02.561',0.300
'0:02.563',0.300
'0:02.564',0.300
'0:02.565',0.300
'0:02.567',0.300
'0:02.568',0.308
'0:02.569',0.308
'0:02.571',0.315
'0:02.572',0.308
'0:02.574',0.292
'0:02.575',0.292
'0:02.576',0.300
'0:02.578',0.300
'0:02.579',0.300
'0:02.581',0.300
'0:02.582',0.292
'0:02.583',0.300
'0:02.585',0.315
'0:02.586',0.331
'0:02.588',0.331
'0:02.589',0.331
'0:02.590',0.323
'0:02.592',0.338
'0:02.593',0.331
'0:02.594',0.331
'0:02.596',0.331
'0:02.597',0.315
'0:02.599',0.315
'0:02.600',0.315
'0:02.601',0.323
'0:02.603',0.315
'0:02.604',0.315
'0:02.606',0.323
'0:02.607',0.331
'0:02.608',0.338
'0:02.610',0.331
'0:02.611',0.323
'0:02.613',0.338
'0:02.614',0.354
'0:02.615',0.354
'0:02.617',0.354
'0:02.618',0.369
'0:02.619',0.385
'0:02.621',0.377
'0:02.622',0.377
'0:02.624',0.385
'0:02.625',0.385
'0:02.626',0.392
'0:02.628',0.400
'0:02.629',0.415
'0:02.631',0.408
'0:02.632',0.408
'0:02.633',0.400
'0:02.635',0.408
'0:02.636',0.423
'0:02.638',0.415
'0:02.639',0.408
'0:02.640',0.415
'0:02.642',0.431
'0:02.643',0.423
'0:02.644',0.438
'0:02.646',0.431
'0:02.647',0.431
'0:02.649',0.454
'0:02.650',0.469
'0:02.651',0.462
'0:02.653',0.454
'0:02.654',0.469
'0:02.656',0.454
'0:02.657',0.454
'0:02.658',0.469
'0:02.660',0.462
'0:02.661',0.454
'0:02.663',0.462
'0:02.664',0.469
'0:02.665',0.477
'0:02.667',0.462
'0:02.668',0.469
'0:02.669',0.477
'0:02.671',0.477
'0:02.672',0.469
'0:02.674',0.469
'0:02.675',0.462
'0:02.676',0.469
'0:02.678',0.469
'0:02.679',0.462
'0:02.681',0.438
'0:02.682',0.454
'0:02.683',0.454
'0:02.685',0.438
'0:02.686',0.446
'0:02.688',0.446
'0:02.689',0.446
'0:02.690',0.446
'0:02.692',0.431
'0:02.693',0.431
'0:02.694',0.423
'0:02.696',0.415
'0:02.697',0.408
'0:02.699',0.408
'0:02.700',0.392
'0:02.701',0.392
'0:02.703',0.392
'0:02.704',0.385
'0:02.706',0.377
'0:02.707',0.385
'0:02.708',0.385
'0:02.710',0.377
'0:02.711',0.362
'0:02.713',0.369
'0:02.714',0.354
'0:02.715',0.354
'0:02.717',0.346
'0:02.718',0.338
'0:02.719',0.338
'0:02.721',0.338
'0:02.722',0.331
'0:02.724',0.315
'0:02.725',0.323
'0:02.726',0.315
'0:02.728',0.315
'0:02.729',0.292
'0:02.731',0.285
'0:02.732',0.292
'0:02.733',0.285
'0:02.735',0.269
'0:02.736',0.269
'0:02.738',0.269
'0:02.739',0.262
'0:02.740',0.254
'0:02.742',0.262
'0:02.743',0.269
'0:02.744',0.254
'0:02.746',0.254
'0:02.747',0.262
'0:02.749',0.254
'0:02.750',0.246
'0:02.751',0.238
'0:02.753',0.238
'0:02.754',0.238
'0:02.756',0.238
'0:02.757',0.231
'0:02.758',0.231
'0:02.760',0.238
'0:02.761',0.238
'0:02.763',0.231
'0:02.764',0.223
'0:02.765',0.231
'0:02.767',0.215
'0:02.768',0.215
'0:02.769',0.223
'0:02.771',0.223
'0:02.772',0.223
'0:02.774',0.223
'0:02.775',0.223
'0:02.776',0.223
'0:02.778',0.223
'0:02.779',0.223
'0:02.781',0.231
'0:02.782',0.223
'0:02.783',0.223
'0:02.785',0.223
'0:02.786',0.208
'0:02.788',0.208
'0:02.789',0.208
'0:02.790',0.200
'0:02.792',0.208
'0:02.793',0.200
'0:02.794',0.200
'0:02.796',0.192
'0:02.797',0.200
'0:02.799',0.200
'0:02.800',0.200
'0:02.801',0.208
'0:02.803',0.208
'0:02.804',0.208
'0:02.806',0.208
'0:02.807',0.200
'0:02.808',0.200
'0:02.810',0.200
'0:02.811',0.192
'0:02.813',0.192
'0:02.814',0.192
'0:02.815',0.185
'0:02.817',0.200
'0:02.818',0.200
'0:02.819',0.208
'0:02.821',0.200
'0:02.822',0.200
'0:02.824',0.208
'0:02.825',0.200
'0:02.826',0.200
'0:02.828',0.200
'0:02.829',0.192
'0:02.831',0.200
'0:02.832',0.200
'0:02.833',0.200
'0:02.835',0.200
'0:02.836',0.192
'0:02.838',0.192
'0:02.839',0.200
'0:02.840',0.200
'0:02.842',0.185
'0:02.843',0.185
'0:02.844',0.192
'0:02.846',0.192
'0:02.847',0.192
'0:02.849',0.192
'0:02.850',0.192
'0:02.851',0.192
'0:02.853',0.200
'0:02.854',0.200
'0:02.856',0.208
'0:02.857',0.208
'0:02.858',0.215
'0:02.860',0.208
'0:02.861',0.215
'0:02.863',0.215
'0:02.864',0.208
'0:02.865',0.208
'0:02.867',0.208
'0:02.868',0.208
'0:02.869',0.200
'0:02.871',0.192
'0:02.872',0.192
'0:02.874',0.192
'0:02.875',0.192
'0:02.876',0.185
'0:02.878',0.185
'0:02.879',0.177
'0:02.881',0.177
'0:02.882',0.192
'0:02.883',0.192
'0:02.885',0.185
'0:02.886',0.192
'0:02.888',0.192
'0:02.889',0.200
'0:02.890',0.185
'0:02.892',0.192
'0:02.893',0.200
'0:02.894',0.192
'0:02.896',0.192
'0:02.897',0.200
'0:02.899',0.192
'0:02.900',0.185
'0:02.901',0.192
'0:02.903',0.192
'0:02.904',0.192
'0:02.906',0.185
'0:02.907',0.192
'0:02.908',0.185
'0:02.910',0.177
'0:02.911',0.192
'0:02.913',0.185
'0:02.914',0.185
'0:02.915',0.185
'0:02.917',0.185
'0:02.918',0.185
'0:02.919',0.185
'0:02.921',0.185
'0:02.922',0.185
'0:02.924',0.185
'0:02.925',0.192
'0:02.926',0.185
'0:02.928',0.169
'0:02.929',0.177
'0:02.931',0.185
'0:02.932',0.192
'0:02.933',0.192
'0:02.935',0.177
'0:02.936',0.169
'0:02.938',0.162
'0:02.939',0.162
'0:02.940',0.162
'0:02.942',0.162
'0:02.943',0.169
'0:02.944',0.177
'0:02.946',0.177
'0:02.947',0.177
'0:02.949',0.185
'0:02.950',0.185
'0:02.951',0.192
'0:02.953',0.185
'0:02.954',0.192
'0:02.956',0.177
'0:02.957',0.177
'0:02.958',0.185
'0:02.960',0.185
'0:02.961',0.185
'0:02.963',0.185
'0:02.964',0.177
'0:02.965',0.185
'0:02.967',0.185
'0:02.968',0.192
'0:02.969',0.185
'0:02.971',0.185
'0:02.972',0.200
'0:02.974',0.200
'0:02.975',0.200
'0:02.976',0.192
'0:02.978',0.192
'0:02.979',0.192
'0:02.981',0.192
'0:02.982',0.192
'0:02.983',0.185
'0:02.985',0.185
'0:02.986',0.185
'0:02.988',0.185
'0:02.989',0.185
'0:02.990',0.177
'0:02.992',0.185
'0:02.993',0.177
'0:02.994',0.185
'0:02.996',0.185
'0:02.997',0.177
'0:02.999',0.177
'0:03.000',0.177
'0:03.001',0.185
'0:03.003',0.192
'0:03.004',0.192
'0:03.006',0.185
'0:03.007',0.192
'0:03.008',0.200
'0:03.010',0.200
'0:03.011',0.200
'0:03.013',0.200
'0:03.014',0.192
'0:03.015',0.200
'0:03.017',0.215
'0:03.018',0.208
'0:03.019',0.192
'0:03.021',0.192
'0:03.022',0.192
'0:03.024',0.200
'0:03.025',0.200
'0:03.026',0.185
'0:03.028',0.192
'0:03.029',0.192
'0:03.031',0.200
'0:03.032',0.192
'0:03.033',0.200
'0:03.035',0.200
'0:03.036',0.200
'0:03.038',0.215
'0:03.039',0.200
'0:03.040',0.208
'0:03.042',0.200
'0:03.043',0.208
'0:03.044',0.208
'0:03.046',0.208
'0:03.047',0.200
'0:03.049',0.200
'0:03.050',0.200
'0:03.051',0.215
'0:03.053',0.208
'0:03.054',0.200
'0:03.056',0.208
'0:03.057',0.200
'0:03.058',0.200
'0:03.060',0.200
'0:03.061',0.200
'0:03.063',0.208
'0:03.064',0.208
'0:03.065',0.200
'0:03.067',0.208
'0:03.068',0.200
'0:03.069',0.208
'0:03.071',0.208
'0:03.072',0.200
'0:03.074',0.192
'0:03.075',0.192
'0:03.076',0.200
'0:03.078',0.200
'0:03.079',0.208
'0:03.081',0.215
'0:03.082',0.215
'0:03.083',0.208
'0:03.085',0.192
'0:03.086',0.208
'0:03.088',0.215
'0:03.089',0.215
'0:03.090',0.208
'0:03.092',0.215
'0:03.093',0.215
'0:03.094',0.215
'0:03.096',0.215
'0:03.097',0.215
'0:03.099',0.223
'0:03.100',0.215
'0:03.101',0.215
'0:03.103',0.215
'0:03.104',0.223
'0:03.106',0.223
'0:03.107',0.215
'0:03.108',0.215
'0:03.110',0.215
'0:03.111',0.223
'0:03.113',0.215
'0:03.114',0.215
'0:03.115',0.215
'0:03.117',0.208
'0:03.118',0.215
'0:03.119',0.223
'0:03.121',0.223
'0:03.122',0.223
'0:03.124',0.215
'0:03.125',0.223
'0:03.126',0.231
'0:03.128',0.223
'0:03.129',0.215
'0:03.131',0.215
'0:03.132',0.223
'0:03.133',0.215
'0:03.135',0.215
'0:03.136',0.215
'0:03.138',0.208
'0:03.139',0.200
'0:03.140',0.208
'0:03.142',0.215
'0:03.143',0.215
'0:03.144',0.215
'0:03.146',0.215
'0:03.147',0.223
'0:03.149',0.231
'0:03.150',0.231
'0:03.151',0.231
'0:03.153',0.238
'0:03.154',0.238
'0:03.156',0.238
'0:03.157',0.231
'0:03.158',0.223
'0:03.160',0.231
'0:03.161',0.231
'0:03.163',0.223
'0:03.164',0.223
'0:03.165',0.223
'0:03.167',0.208
'0:03.168',0.223
'0:03.169',0.223
'0:03.171',0.231
'0:03.172',0.246
'0:03.174',0.246
'0:03.175',0.246
'0:03.176',0.254
'0:03.178',0.262
'0:03.179',0.262
'0:03.181',0.262
'0:03.182',0.269
'0:03.183',0.285
'0:03.185',0.285
'0:03.186',0.285
'0:03.188',0.277
'0:03.189',0.277
'0:03.190',0.285
'0:03.192',0.285
'0:03.193',0.285
'0:03.194',0.277
'0:03.196',0.269
'0:03.197',0.254
'0:03.199',0.254
'0:03.200',0.262
'0:03.201',0.262
'0:03.203',0.277
'0:03.204',0.285
'0:03.206',0.277
'0:03.207',0.277
'0:03.208',0.285
'0:03.210',0.292
'0:03.211',0.292
'0:03.213',0.300
'0:03.214',0.300
'0:03.215',0.300
'0:03.217',0.292
'0:03.218',0.292
'0:03.219',0.292
'0:03.221',0.308
'0:03.222',0.308
'0:03.224',0.308
'0:03.225',0.308
'0:03.226',0.308
'0:03.228',0.308
'0:03.229',0.315
'0:03.231',0.308
'0:03.232',0.300
'0:03.233',0.315
'0:03.235',0.315
'0:03.236',0.308
'0:03.238',0.300
'0:03.239',0.300
'0:03.240',0.308
'0:03.242',0.300
'0:03.243',0.308
'0:03.244',0.308
'0:03.246',0.308
'0:03.247',0.308
'0:03.249',0.315
'0:03.250',0.315
'0:03.251',0.308
'0:03.253',0.315
'0:03.254',0.308
'0:03.256',0.308
'0:03.257',0.315
'0:03.258',0.315
'0:03.260',0.300
'0:03.261',0.292
'0:03.263',0.300
'0:03.264',0.308
'0:03.265',0.292
'0:03.267',0.292
'0:03.268',0.292
'0:03.269',0.292
'0:03.271',0.285
'0:03.272',0.277
'0:03.274',0.269
'0:03.275',0.277
'0:03.276',0.285
'0:03.278',0.269
'0:03.279',0.269
'0:03.281',0.269
'0:03.282',0.269
'0:03.283',0.262
'0:03.285',0.254
'0:03.286',0.254
'0:03.288',0.246
'0:03.289',0.246
'0:03.290',0.246
'0:03.292',0.231
'0:03.293',0.231
'0:03.294',0.246
'0:03.296',0.231
'0:03.297',0.215
'0:03.299',0.223
'0:03.300',0.231
'0:03.301',0.208
'0:03.303',0.200
'0:03.304',0.215
'0:03.306',0.208
'0:03.307',0.200
'0:03.308',0.208
'0:03.310',0.208
'0:03.311',0.200
'0:03.313',0.200
'0:03.314',0.200
'0:03.315',0.192
'0:03.317',0.200
'0:03.318',0.200
'0:03.319',0.192
'0:03.321',0.200
'0:03.322',0.208
'0:03.324',0.200
'0:03.325',0.215
'0:03.326',0.223
'0:03.328',0.215
'0:03.329',0.223
'0:03.331',0.223
'0:03.332',0.215
'0:03.333',0.231
'0:03.335',0.238
'0:03.336',0.231
'0:03.338',0.223
'0:03.339',0.238
'0:03.340',0.246
'0:03.342',0.238
'0:03.343',0.246
'0:03.344',0.246
'0:03.346',0.254
'0:03.347',0.246
'0:03.349',0.254
'0:03.350',0.246
'0:03.351',0.254
'0:03.353',0.269
'0:03.354',0.285
'0:03.356',0.292
'0:03.357',0.308
'0:03.358',0.323
'0:03.360',0.331
'0:03.361',0.338
'0:03.363',0.369
'0:03.364',0.385
'0:03.365',0.400
'0:03.367',0.423
'0:03.368',0.454
'0:03.369',0.462
'0:03.371',0.469
'0:03.372',0.508
'0:03.374',0.523
'0:03.375',0.554
'0:03.376',0.562
'0:03.378',0.577
'0:03.379',0.585
'0:03.381',0.577
'0:03.382',0.562
'0:03.383',0.562
'0:03.385',0.562
'0:03.386',0.554
'0:03.388',0.546
'0:03.389',0.538
'0:03.390',0.508
'0:03.392',0.477
'0:03.393',0.469
'0:03.394',0.446
'0:03.396',0.415
'0:03.397',0.392
'0:03.399',0.385
'0:03.400',0.392
'0:03.401',0.392
'0:03.403',0.385
'0:03.404',0.362
'0:03.406',0.362
'0:03.407',0.362
'0:03.408',0.354
'0:03.410',0.346
'0:03.411',0.346
'0:03.413',0.346
'0:03.414',0.331
'0:03.415',0.331
'0:03.417',0.331
'0:03.418',0.323
'0:03.419',0.323
'0:03.421',0.331
'0:03.422',0.315
'0:03.424',0.315
'0:03.425',0.323
'0:03.426',0.315
'0:03.428',0.300
'0:03.429',0.285
'0:03.431',0.285
'0:03.432',0.269
'0:03.433',0.269
'0:03.435',0.269
'0:03.436',0.254
'0:03.438',0.246
'0:03.439',0.254
'0:03.440',0.246
'0:03.442',0.246
'0:03.443',0.246
'0:03.444',0.246
'0:03.446',0.231
'0:03.447',0.231
'0:03.449',0.238
'0:03.450',0.223
'0:03.451',0.231
'0:03.453',0.223
'0:03.454',0.215
'0:03.456',0.208
'0:03.457',0.223
'0:03.458',0.215
'0:03.460',0.208
'0:03.461',0.215
'0:03.463',0.215
'0:03.464',0.200
'0:03.465',0.215
'0:03.467',0.215
'0:03.468',0.215
'0:03.469',0.215
'0:03.471',0.215
'0:03.472',0.208
'0:03.474',0.223
'0:03.475',0.231
'0:03.476',0.223
'0:03.478',0.215
'0:03.479',0.223
'0:03.481',0.223
'0:03.482',0.215
'0:03.483',0.215
'0:03.485',0.223
'0:03.486',0.215
'0:03.488',0.223
'0:03.489',0.215
'0:03.490',0.215
'0:03.492',0.223
'0:03.493',0.215
'0:03.494',0.215
'0:03.496',0.208
'0:03.497',0.208
'0:03.499',0.223
'0:03.500',0.215
'0:03.501',0.215
'0:03.503',0.223
'0:03.504',0.215
'0:03.506',0.215
'0:03.507',0.223
'0:03.508',0.223
'0:03.510',0.223
'0:03.511',0.231
'0:03.513',0.215
'0:03.514',0.223
'0:03.515',0.231
'0:03.517',0.223
'0:03.518',0.215
'0:03.519',0.215
'0:03.521',0.223
'0:03.522',0.208
'0:03.524',0.208
'0:03.525',0.215
'0:03.526',0.208
'0:03.528',0.200
'0:03.529',0.200
'0:03.531',0.200
'0:03.532',0.208
'0:03.533',0.208
'0:03.535',0.200
'0:03.536',0.208
'0:03.538',0.215
'0:03.539',0.208
'0:03.540',0.215
'0:03.542',0.215
'0:03.543',0.208
'0:03.544',0.200
'0:03.546',0.208
'0:03.547',0.200
'0:03.549',0.192
'0:03.550',0.200
'0:03.551',0.192
'0:03.553',0.169
'0:03.554',0.169
'0:03.556',0.162
'0:03.557',0.169
'0:03.558',0.162
'0:03.560',0.169
'0:03.561',0.177
'0:03.563',0.154
'0:03.564',0.162
'0:03.565',0.177
'0:03.567',0.169
'0:03.568',0.169
'0:03.569',0.162
'0:03.571',0.162
'0:03.572',0.162
'0:03.574',0.162
'0:03.575',0.162
'0:03.576',0.162
'0:03.578',0.162
'0:03.579',0.162
'0:03.581',0.162
'0:03.582',0.162
'0:03.583',0.162
'0:03.585',0.162
'0:03.586',0.169
'0:03.588',0.146
'0:03.589',0.146
'0:03.590',0.154
'0:03.592',0.154
'0:03.593',0.146
'0:03.594',0.146
'0:03.596',0.146
'0:03.597',0.154
'0:03.599',0.146
'0:03.600',0.154
'0:03.601',0.169
'0:03.603',0.162
'0:03.604',0.154
'0:03.606',0.154
'0:03.607',0.169
'0:03.608',0.154
'0:03.610',0.154
'0:03.611',0.154
'0:03.613',0.154
'0:03.614',0.146
'0:03.615',0.146
'0:03.617',0.138
'0:03.618',0.131
'0:03.619',0.123
'0:03.621',0.115
'0:03.622',0.123
'0:03.624',0.131
'0:03.625',0.131
'0:03.626',0.123
'0:03.628',0.115
'0:03.629',0.115
'0:03.631',0.108
'0:03.632',0.100
'0:03.633',0.100
'0:03.635',0.092
'0:03.636',0.100
'0:03.638',0.100
'0:03.639',0.100
'0:03.640',0.085
'0:03.642',0.085
'0:03.643',0.077
'0:03.644',0.077
'0:03.646',0.077
'0:03.647',0.077
'0:03.649',0.085
'0:03.650',0.092
'0:03.651',0.085
'0:03.653',0.092
'0:03.654',0.100
'0:03.656',0.100
'0:03.657',0.108
'0:03.658',0.123
'0:03.660',0.115
'0:03.661',0.108
'0:03.663',0.115
'0:03.664',0.115
'0:03.665',0.115
'0:03.667',0.123
'0:03.668',0.123
'0:03.669',0.131
'0:03.671',0.138
'0:03.672',0.131
'0:03.674',0.115
'0:03.675',0.115
'0:03.676',0.123
'0:03.678',0.115
'0:03.679',0.123
'0:03.681',0.131
'0:03.682',0.123
'0:03.683',0.138
'0:03.685',0.146
'0:03.686',0.146
'0:03.688',0.146
'0:03.689',0.138
'0:03.690',0.146
'0:03.692',0.146
'0:03.693',0.162
'0:03.694',0.154
'0:03.696',0.154
'0:03.697',0.162
'0:03.699',0.162
'0:03.700',0.162
'0:03.701',0.177
'0:03.703',0.177
'0:03.704',0.162
'0:03.706',0.177
'0:03.707',0.169
'0:03.708',0.162
'0:03.710',0.162
'0:03.711',0.185
'0:03.713',0.177
'0:03.714',0.177
'0:03.715',0.192
'0:03.717',0.200
'0:03.718',0.192
'0:03.719',0.200
'0:03.721',0.192
'0:03.722',0.192
'0:03.724',0.208
'0:03.725',0.200
'0:03.726',0.192
'0:03.728',0.208
'0:03.729',0.215
'0:03.731',0.215
'0:03.732',0.223
'0:03.733',0.223
'0:03.735',0.231
'0:03.736',0.231
'0:03.738',0.238
'0:03.739',0.238
'0:03.740',0.238
'0:03.742',0.231
'0:03.743',0.223
'0:03.744',0.223
'0:03.746',0.223
'0:03.747',0.215
'0:03.749',0.231
'0:03.750',0.223
'0:03.751',0.208
'0:03.753',0.223
'0:03.754',0.223
'0:03.756',0.200
'0:03.757',0.215
'0:03.758',0.223
'0:03.760',0.215
'0:03.761',0.223
'0:03.763',0.223
'0:03.764',0.223
'0:03.765',0.223
'0:03.767',0.231
'0:03.768',0.223
'0:03.769',0.223
'0:03.771',0.231
'0:03.772',0.231
'0:03.774',0.231
'0:03.775',0.238
'0:03.776',0.231
'0:03.778',0.238
'0:03.779',0.238
'0:03.781',0.231
'0:03.782',0.223
'0:03.783',0.223
'0:03.785',0.215
'0:03.786',0.223
'0:03.788',0.215
'0:03.789',0.208
'0:03.790',0.215
'0:03.792',0.215
'0:03.793',0.208
'0:03.794',0.223
'0:03.796',0.231
'0:03.797',0.215
'0:03.799',0.215
'0:03.800',0.231
'0:03.801',0.231
'0:03.803',0.238
'0:03.804',0.254
'0:03.806',0.254
'0:03.807',0.246
'0:03.808',0.231
'0:03.810',0.231
'0:03.811',0.223
'0:03.813',0.231
'0:03.814',0.231
'0:03.815',0.231
'0:03.817',0.215
'0:03.818',0.215
'0:03.819',0.231
'0:03.821',0.231
'0:03.822',0.238
'0:03.824',0.223
'0:03.825',0.223
'0:03.826',0.231
'0:03.828',0.231
'0:03.829',0.238
'0:03.831',0.246
'0:03.832',0.238
'0:03.833',0.231
'0:03.835',0.238
'0:03.836',0.254
'0:03.838',0.231
'0:03.839',0.238
'0:03.840',0.254
'0:03.842',0.246
'0:03.843',0.238
'0:03.844',0.231
'0:03.846',0.223
'0:03.847',0.215
'0:03.849',0.215
'0:03.850',0.215
'0:03.851',0.215
'0:03.853',0.208
'0:03.854',0.215
'0:03.856',0.200
'0:03.857',0.200
'0:03.858',0.192
'0:03.860',0.185
'0:03.861',0.192
'0:03.863',0.208
'0:03.864',0.215
'0:03.865',0.215
'0:03.867',0.215
'0:03.868',0.215
'0:03.869',0.208
'0:03.871',0.215
'0:03.872',0.223
'0:03.874',0.215
'0:03.875',0.231
'0:03.876',0.238
'0:03.878',0.231
'0:03.879',0.246
'0:03.881',0.262
'0:03.882',0.277
'0:03.883',0.292
'0:03.885',0.315
'0:03.886',0.331
'0:03.888',0.331
'0:03.889',0.331
'0:03.890',0.338
'0:03.892',0.338
'0:03.893',0.346
'0:03.894',0.354
'0:03.896',0.346
'0:03.897',0.346
'0:03.899',0.323
'0:03.900',0.308
'0:03.901',0.285
'0:03.903',0.262
'0:03.904',0.231
'0:03.906',0.208
'0:03.907',0.185
'0:03.908',0.154
'0:03.910',0.100
'0:03.911',0.069
'0:03.913',0.038
'0:03.914',-0.015
'0:03.915',-0.054
'0:03.917',-0.092
'0:03.918',-0.138
'0:03.919',-0.200
'0:03.921',-0.277
'0:03.922',-0.323
'0:03.924',-0.385
'0:03.925',-0.462
'0:03.926',-0.500
'0:03.928',-0.515
'0:03.929',-0.492
'0:03.931',-0.485
'0:03.932',-0.469
'0:03.933',-0.462
'0:03.935',-0.438
'0:03.936',-0.438
'0:03.938',-0.423
'0:03.939',-0.392
'0:03.940',-0.362
'0:03.942',-0.338
'0:03.943',-0.315
'0:03.944',-0.292
'0:03.946',-0.262
'0:03.947',-0.223
'0:03.949',-0.177
'0:03.950',-0.131
'0:03.951',-0.077
'0:03.953',-0.046
'0:03.954',0.000
'0:03.956',0.054
'0:03.957',0.092
'0:03.958',0.108
'0:03.960',0.108
'0:03.961',0.123
'0:03.963',0.138
'0:03.964',0.131
'0:03.965',0.146
'0:03.967',0.177
'0:03.968',0.177
'0:03.969',0.177
'0:03.971',0.192
'0:03.972',0.208
'0:03.974',0.200
'0:03.975',0.208
'0:03.976',0.215
'0:03.978',0.215
'0:03.979',0.208
'0:03.981',0.215
'0:03.982',0.223
'0:03.983',0.223
'0:03.985',0.231
'0:03.986',0.231
'0:03.988',0.231
'0:03.989',0.231
'0:03.990',0.238
'0:03.992',0.231
'0:03.993',0.238
'0:03.994',0.246
'0:03.996',0.238
'0:03.997',0.231
'0:03.999',0.246
'0:04.000',0.238
'0:04.001',0.246
'0:04.003',0.246
'0:04.004',0.254
'0:04.006',0.262
'0:04.007',0.246
'0:04.008',0.238
'0:04.010',0.246
'0:04.011',0.246
'0:04.013',0.238
'0:04.014',0.246
'0:04.015',0.262
'0:04.017',0.269
'0:04.018',0.269
'0:04.019',0.277
'0:04.021',0.269
'0:04.022',0.262
'0:04.024',0.262
'0:04.025',0.262
'0:04.026',0.254
'0:04.028',0.269
'0:04.029',0.269
'0:04.031',0.269
'0:04.032',0.269
'0:04.033',0.262
'0:04.035',0.254
'0:04.036',0.254
'0:04.038',0.262
'0:04.039',0.277
'0:04.040',0.269
'0:04.042',0.277
'0:04.043',0.277
'0:04.044',0.277
'0:04.046',0.285
'0:04.047',0.292
'0:04.049',0.285
'0:04.050',0.285
'0:04.051',0.300
'0:04.053',0.292
'0:04.054',0.277
'0:04.056',0.292
'0:04.057',0.308
'0:04.058',0.300
'0:04.060',0.292
'0:04.061',0.292
'0:04.063',0.292
'0:04.064',0.292
'0:04.065',0.300
'0:04.067',0.308
'0:04.068',0.300
'0:04.069',0.292
'0:04.071',0.292
'0:04.072',0.292
'0:04.074',0.300
'0:04.075',0.315
'0:04.076',0.308
'0:04.078',0.315
'0:04.079',0.315
'0:04.081',0.323
'0:04.082',0.331
'0:04.083',0.354
'0:04.085',0.354
'0:04.086',0.338
'0:04.088',0.346
'0:04.089',0.354
'0:04.090',0.338
'0:04.092',0.346
'0:04.093',0.331
'0:04.094',0.323
'0:04.096',0.331
'0:04.097',0.346
'0:04.099',0.338
'0:04.100',0.331
'0:04.101',0.338
'0:04.103',0.354
'0:04.104',0.338
'0:04.106',0.346
'0:04.107',0.346
'0:04.108',0.354
'0:04.110',0.362
'0:04.111',0.369
'0:04.113',0.369
'0:04.114',0.369
'0:04.115',0.392
'0:04.117',0.400
'0:04.118',0.392
'0:04.119',0.392
'0:04.121',0.400
'0:04.122',0.400
'0:04.124',0.408
'0:04.125',0.408
'0:04.126',0.408
'0:04.128',0.408
'0:04.129',0.408
'0:04.131',0.408
'0:04.132',0.408
'0:04.133',0.415
'0:04.135',0.415
'0:04.136',0.408
'0:04.138',0.408
'0:04.139',0.423
'0:04.140',0.431
'0:04.142',0.438
'0:04.143',0.446
'0:04.144',0.454
'0:04.146',0.454
'0:04.147',0.454
'0:04.149',0.446
'0:04.150',0.469
'0:04.151',0.469
'0:04.153',0.454
'0:04.154',0.454
'0:04.156',0.469
'0:04.157',0.462
'0:04.158',0.454
'0:04.160',0.462
'0:04.161',0.462
'0:04.163',0.462
'0:04.164',0.469
'0:04.165',0.477
'0:04.167',0.469
'0:04.168',0.469
'0:04.169',0.477
'0:04.171',0.454
'0:04.172',0.454
'0:04.174',0.462
'0:04.175',0.454
'0:04.176',0.454
'0:04.178',0.462
'0:04.179',0.454
'0:04.181',0.454
'0:04.182',0.454
'0:04.183',0.446
'0:04.185',0.454
'0:04.186',0.454
'0:04.188',0.446
'0:04.189',0.431
'0:04.190',0.431
'0:04.192',0.423
'0:04.193',0.423
'0:04.194',0.408
'0:04.196',0.415
'0:04.197',0.408
'0:04.199',0.408
'0:04.200',0.400
'0:04.201',0.392
'0:04.203',0.392
'0:04.204',0.392
'0:04.206',0.377
'0:04.207',0.377
'0:04.208',0.377
'0:04.210',0.369
'0:04.211',0.354
'0:04.213',0.354
'0:04.214',0.354
'0:04.215',0.346
'0:04.217',0.354
'0:04.218',0.346
'0:04.219',0.331
'0:04.221',0.323
'0:04.222',0.338
'0:04.224',0.323
'0:04.225',0.315
'0:04.226',0.308
'0:04.228',0.300
'0:04.229',0.285
'0:04.231',0.300
'0:04.232',0.300
'0:04.233',0.269
'0:04.235',0.269
'0:04.236',0.269
'0:04.238',0.269
'0:04.239',0.269
'0:04.240',0.262
'0:04.242',0.262
'0:04.243',0.262
'0:04.244',0.246
'0:04.246',0.231
'0:04.247',0.231
'0:04.249',0.246
'0:04.250',0.246
'0:04.251',0.238
'0:04.253',0.223
'0:04.254',0.223
'0:04.256',0.223
'0:04.257',0.231
'0:04.258',0.231
'0:04.260',0.223
'0:04.261',0.223
'0:04.263',0.231
'0:04.264',0.223
'0:04.265',0.215
'0:04.267',0.215
'0:04.268',0.223
'0:04.269',0.215
'0:04.271',0.215
'0:04.272',0.215
'0:04.274',0.215
'0:04.275',0.223
'0:04.276',0.223
'0:04.278',0.223
'0:04.279',0.223
'0:04.281',0.215
'0:04.282',0.200
'0:04.283',0.215
'0:04.285',0.208
'0:04.286',0.215
'0:04.288',0.215
'0:04.289',0.208
'0:04.290',0.208
'0:04.292',0.215
'0:04.293',0.215
'0:04.294',0.200
'0:04.296',0.200
'0:04.297',0.215
'0:04.299',0.208
'0:04.300',0.200
'0:04.301',0.208
'0:04.303',0.192
'0:04.304',0.200
'0:04.306',0.208
'0:04.307',0.208
'0:04.308',0.208
'0:04.310',0.215
'0:04.311',0.215
'0:04.313',0.215
'0:04.314',0.208
'0:04.315',0.208
'0:04.317',0.208
'0:04.318',0.208
'0:04.319',0.208
'0:04.321',0.200
'0:04.322',0.208
'0:04.324',0.208
'0:04.325',0.200
'0:04.326',0.200
'0:04.328',0.200
'0:04.329',0.200
'0:04.331',0.192
'0:04.332',0.185
'0:04.333',0.192
'0:04.335',0.185
'0:04.336',0.177
'0:04.338',0.169
'0:04.339',0.177
'0:04.340',0.185
'0:04.342',0.185
'0:04.343',0.177
'0:04.344',0.177
'0:04.346',0.185
'0:04.347',0.185
'0:04.349',0.192
'0:04.350',0.192
'0:04.351',0.177
'0:04.353',0.200
'0:04.354',0.208
'0:04.356',0.223
'0:04.357',0.215
'0:04.358',0.223
'0:04.360',0.215
'0:04.361',0.208
'0:04.363',0.208
'0:04.364',0.208
'0:04.365',0.200
'0:04.367',0.208
'0:04.368',0.192
'0:04.369',0.192
'0:04.371',0.192
'0:04.372',0.192
'0:04.374',0.192
'0:04.375',0.185
'0:04.376',0.185
'0:04.378',0.169
'0:04.379',0.177
'0:04.381',0.185
'0:04.382',0.192
'0:04.383',0.200
'0:04.385',0.208
'0:04.386',0.208
'0:04.388',0.215
'0:04.389',0.208
'0:04.390',0.192
'0:04.392',0.192
'0:04.393',0.200
'0:04.394',0.192
'0:04.396',0.192
'0:04.397',0.192
'0:04.399',0.192
'0:04.400',0.192
'0:04.401',0.192
'0:04.403',0.200
'0:04.404',0.208
'0:04.406',0.208
'0:04.407',0.192
'0:04.408',0.192
'0:04.410',0.208
'0:04.411',0.200
'0:04.413',0.192
'0:04.414',0.208
'0:04.415',0.200
'0:04.417',0.208
'0:04.418',0.208
'0:04.419',0.208
'0:04.421',0.200
'0:04.422',0.200
'0:04.424',0.208
'0:04.425',0.208
'0:04.426',0.200
'0:04.428',0.200
'0:04.429',0.192
'0:04.431',0.185
'0:04.432',0.185
'0:04.433',0.169
'0:04.435',0.169
'0:04.436',0.162
'0:04.438',0.169
'0:04.439',0.169
'0:04.440',0.169
'0:04.442',0.177
'0:04.443',0.169
'0:04.444',0.185
'0:04.446',0.200
'0:04.447',0.192
'0:04.449',0.192
'0:04.450',0.185
'0:04.451',0.185
'0:04.453',0.192
'0:04.454',0.192
'0:04.456',0.185
'0:04.457',0.192
'0:04.458',0.192
'0:04.460',0.192
'0:04.461',0.192
'0:04.463',0.185
'0:04.464',0.192
'0:04.465',0.192
'0:04.467',0.185
'0:04.468',0.192
'0:04.469',0.215
'0:04.471',0.208
'0:04.472',0.200
'0:04.474',0.208
'0:04.475',0.200
'0:04.476',0.200
'0:04.478',0.215
'0:04.479',0.208
'0:04.481',0.192
'0:04.482',0.200
'0:04.483',0.200
'0:04.485',0.185
'0:04.486',0.185
'0:04.488',0.185
'0:04.489',0.192
'0:04.490',0.185
'0:04.492',0.177
'0:04.493',0.185
'0:04.494',0.185
'0:04.496',0.192
'0:04.497',0.192
'0:04.499',0.200
'0:04.500',0.208
'0:04.501',0.215
'0:04.503',0.223
'0:04.504',0.223
'0:04.506',0.215
'0:04.507',0.223
'0:04.508',0.231
'0:04.510',0.215
'0:04.511',0.215
'0:04.513',0.215
'0:04.514',0.215
'0:04.515',0.215
'0:04.517',0.215
'0:04.518',0.215
'0:04.519',0.223
'0:04.521',0.208
'0:04.522',0.200
'0:04.524',0.208
'0:04.525',0.208
'0:04.526',0.215
'0:04.528',0.208
'0:04.529',0.208
'0:04.531',0.200
'0:04.532',0.208
'0:04.533',0.223
'0:04.535',0.215
'0:04.536',0.208
'0:04.538',0.208
'0:04.539',0.215
'0:04.540',0.223
'0:04.542',0.215
'0:04.543',0.215
'0:04.544',0.215
'0:04.546',0.208
'0:04.547',0.215
'0:04.549',0.215
'0:04.550',0.215
'0:04.551',0.208
'0:04.553',0.208
'0:04.554',0.208
'0:04.556',0.208
'0:04.557',0.208
'0:04.558',0.200
'0:04.560',0.192
'0:04.561',0.200
'0:04.563',0.200
'0:04.564',0.200
'0:04.565',0.200
'0:04.567',0.208
'0:04.568',0.200
'0:04.569',0.192
'0:04.571',0.192
'0:04.572',0.208
'0:04.574',0.208
'0:04.575',0.200
'0:04.576',0.192
'0:04.578',0.200
'0:04.579',0.215
'0:04.581',0.200
'0:04.582',0.215
'0:04.583',0.208
'0:04.585',0.200
'0:04.586',0.208
'0:04.588',0.208
'0:04.589',0.192
'0:04.590',0.200
'0:04.592',0.200
'0:04.593',0.208
'0:04.594',0.208
'0:04.596',0.200
'0:04.597',0.200
'0:04.599',0.200
'0:04.600',0.200
'0:04.601',0.208
'0:04.603',0.215
'0:04.604',0.208
'0:04.606',0.200
'0:04.607',0.200
'0:04.608',0.215
'0:04.610',0.215
'0:04.611',0.208
'0:04.613',0.208
'0:04.614',0.215
'0:04.615',0.223
'0:04.617',0.238
'0:04.618',0.223
'0:04.619',0.223
'0:04.621',0.223
'0:04.622',0.231
'0:04.624',0.238
'0:04.625',0.238
'0:04.626',0.238
'0:04.628',0.231
'0:04.629',0.223
'0:04.631',0.223
'0:04.632',0.223
'0:04.633',0.215
'0:04.635',0.215
'0:04.636',0.223
'0:04.638',0.223
'0:04.639',0.215
'0:04.640',0.215
'0:04.642',0.223
'0:04.643',0.223
'0:04.644',0.223
'0:04.646',0.223
'0:04.647',0.231
'0:04.649',0.238
'0:04.650',0.238
'0:04.651',0.238
'0:04.653',0.231
'0:04.654',0.223
'0:04.656',0.231
'0:04.657',0.231
'0:04.658',0.223
'0:04.660',0.231
'0:04.661',0.215
'0:04.663',0.208
'0:04.664',0.208
'0:04.665',0.208
'0:04.667',0.215
'0:04.668',0.215
'0:04.669',0.223
'0:04.671',0.231
'0:04.672',0.231
'0:04.674',0.254
'0:04.675',0.262
'0:04.676',0.262
'0:04.678',0.269
'0:04.679',0.269
'0:04.681',0.269
'0:04.682',0.269
'0:04.683',0.269
'0:04.685',0.269
'0:04.686',0.269
'0:04.688',0.269
'0:04.689',0.269
'0:04.690',0.269
'0:04.692',0.269
'0:04.693',0.254
'0:04.694',0.246
'0:04.696',0.246
'0:04.697',0.262
'0:04.699',0.262
'0:04.700',0.269
'0:04.701',0.277
'0:04.703',0.285
'0:04.704',0.285
'0:04.706',0.285
'0:04.707',0.292
'0:04.708',0.292
'0:04.710',0.292
'0:04.711',0.292
'0:04.713',0.315
'0:04.714',0.308
'0:04.715',0.308
'0:04.717',0.315
'0:04.718',0.315
'0:04.719',0.315
'0:04.721',0.323
'0:04.722',0.331
'0:04.724',0.323
'0:04.725',0.308
'0:04.726',0.308
'0:04.728',0.308
'0:04.729',0.315
'0:04.731',0.300
'0:04.732',0.308
'0:04.733',0.300
'0:04.735',0.300
'0:04.736',0.315
'0:04.738',0.315
'0:04.739',0.323
'0:04.740',0.315
'0:04.742',0.308
'0:04.743',0.315
'0:04.744',0.315
'0:04.746',0.323
'0:04.747',0.331
'0:04.749',0.323
'0:04.750',0.323
'0:04.751',0.323
'0:04.753',0.315
'0:04.754',0.308
'0:04.756',0.300
'0:04.757',0.300
'0:04.758',0.300
'0:04.760',0.300
'0:04.761',0.300
'0:04.763',0.292
'0:04.764',0.292
'0:04.765',0.285
'0:04.767',0.277
'0:04.768',0.285
'0:04.769',0.277
'0:04.771',0.277
'0:04.772',0.277
'0:04.774',0.269
'0:04.775',0.262
'0:04.776',0.262
'0:04.778',0.254
'0:04.779',0.262
'0:04.781',0.254
'0:04.782',0.254
'0:04.783',0.246
'0:04.785',0.238
'0:04.786',0.231
'0:04.788',0.231
'0:04.789',0.231
'0:04.790',0.215
'0:04.792',0.223
'0:04.793',0.223
'0:04.794',0.215
'0:04.796',0.215
'0:04.797',0.215
'0:04.799',0.208
'0:04.800',0.200
'0:04.801',0.215
'0:04.803',0.200
'0:04.804',0.200
'0:04.806',0.200
'0:04.807',0.208
'0:04.808',0.192
'0:04.810',0.200
'0:04.811',0.200
'0:04.813',0.185
'0:04.814',0.192
'0:04.815',0.192
'0:04.817',0.192
'0:04.818',0.200
'0:04.819',0.200
'0:04.821',0.200
'0:04.822',0.208
'0:04.824',0.215
'0:04.825',0.215
'0:04.826',0.215
'0:04.828',0.215
'0:04.829',0.223
'0:04.831',0.223
'0:04.832',0.231
'0:04.833',0.231
'0:04.835',0.223
'0:04.836',0.238
'0:04.838',0.231
'0:04.839',0.231
'0:04.840',0.238
'0:04.842',0.246
'0:04.843',0.246
'0:04.844',0.246
'0:04.846',0.254
'0:04.847',0.269
'0:04.849',0.277
'0:04.850',0.277
'0:04.851',0.285
'0:04.853',0.300
'0:04.854',0.315
'0:04.856',0.331
'0:04.857',0.346
'0:04.858',0.354
'0:04.860',0.385
'0:04.861',0.400
'0:04.863',0.400
'0:04.864',0.438
'0:04.865',0.454
'0:04.867',0.469
'0:04.868',0.500
'0:04.869',0.531
'0:04.871',0.538
'0:04.872',0.562
'0:04.874',0.585
'0:04.875',0.577
'0:04.876',0.562
'0:04.878',0.562
'0:04.879',0.562
'0:04.881',0.562
'0:04.882',0.554
'0:04.883',0.554
'0:04.885',0.531
'0:04.886',0.492
'0:04.888',0.469
'0:04.889',0.462
'0:04.890',0.446
'0:04.892',0.408
'0:04.893',0.392
'0:04.894',0.385
'0:04.896',0.377
'0:04.897',0.369
'0:04.899',0.369
'0:04.900',0.354
'0:04.901',0.346
'0:04.903',0.346
'0:04.904',0.346
'0:04.906',0.346
'0:04.907',0.331
'0:04.908',0.338
'0:04.910',0.331
'0:04.911',0.331
'0:04.913',0.315
'0:04.914',0.315
'0:04.915',0.323
'0:04.917',0.323
'0:04.918',0.315
'0:04.919',0.308
'0:04.921',0.308
'0:04.922',0.308
'0:04.924',0.300
'0:04.925',0.292
'0:04.926',0.277
'0:04.928',0.277
'0:04.929',0.269
'0:04.931',0.262
'0:04.932',0.254
'0:04.933',0.238
'0:04.935',0.246
'0:04.936',0.231
'0:04.938',0.215
'0:04.939',0.223
'0:04.940',0.231
'0:04.942',0.223
'0:04.943',0.215
'0:04.944',0.215
'0:04.946',0.215
'0:04.947',0.223
'0:04.949',0.215
'0:04.950',0.215
'0:04.951',0.215
'0:04.953',0.215
'0:04.954',0.208
'0:04.956',0.215
'0:04.957',0.223
'0:04.958',0.208
'0:04.960',0.208
'0:04.961',0.223
'0:04.963',0.231
'0:04.964',0.223
'0:04.965',0.238
'0:04.967',0.238
'0:04.968',0.231
'0:04.969',0.231
'0:04.971',0.238
'0:04.972',0.231
'0:04.974',0.238
'0:04.975',0.231
'0:04.976',0.231
'0:04.978',0.231
'0:04.979',0.238
'0:04.981',0.231
'0:04.982',0.238
'0:04.983',0.223
'0:04.985',0.231
'0:04.986',0.223
'0:04.988',0.223
'0:04.989',0.223
'0:04.990',0.223
'0:04.992',0.231
'0:04.993',0.223
'0:04.994',0.208
'0:04.996',0.215
'0:04.997',0.231
'0:04.999',0.215
'0:05.000',0.215
'0:05.001',0.238
'0:05.003',0.246
'0:05.004',0.231
'0:05.006',0.238
'0:05.007',0.246
'0:05.008',0.231
'0:05.010',0.238
'0:05.011',0.238
'0:05.013',0.223
'0:05.014',0.231
'0:05.015',0.238
'0:05.017',0.223
'0:05.018',0.223
'0:05.019',0.223
'0:05.021',0.215
'0:05.022',0.200
'0:05.024',0.200
'0:05.025',0.208
'0:05.026',0.200
'0:05.028',0.200
'0:05.029',0.192
'0:05.031',0.200
'0:05.032',0.200
'0:05.033',0.192
'0:05.035',0.208
'0:05.036',0.200
'0:05.038',0.192
'0:05.039',0.208
'0:05.040',0.200
'0:05.042',0.192
'0:05.043',0.208
'0:05.044',0.192
'0:05.046',0.185
'0:05.047',0.177
'0:05.049',0.192
'0:05.050',0.185
'0:05.051',0.177
'0:05.053',0.185
'0:05.054',0.177
'0:05.056',0.177
'0:05.057',0.177
'0:05.058',0.169
'0:05.060',0.154
'0:05.061',0.162
'0:05.063',0.162
'0:05.064',0.169
'0:05.065',0.169
'0:05.067',0.177
'0:05.068',0.162
'0:05.069',0.154
'0:05.071',0.162
'0:05.072',0.162
'0:05.074',0.169
'0:05.075',0.177
'0:05.076',0.169
'0:05.078',0.162
'0:05.079',0.162
'0:05.081',0.169
'0:05.082',0.169
'0:05.083',0.162
'0:05.085',0.169
'0:05.086',0.162
'0:05.088',0.154
'0:05.089',0.162
'0:05.090',0.162
'0:05.092',0.162
'0:05.093',0.162
'0:05.094',0.162
'0:05.096',0.162
'0:05.097',0.162
'0:05.099',0.162
'0:05.100',0.169
'0:05.101',0.162
'0:05.103',0.154
'0:05.104',0.162
'0:05.106',0.162
'0:05.107',0.154
'0:05.108',0.154
'0:05.110',0.154
'0:05.111',0.146
'0:05.113',0.146
'0:05.114',0.154
'0:05.115',0.146
'0:05.117',0.131
'0:05.118',0.138
'0:05.119',0.138
'0:05.121',0.115
'0:05.122',0.123
'0:05.124',0.138
'0:05.125',0.123
'0:05.126',0.115
'0:05.128',0.123
'0:05.129',0.115
'0:05.131',0.108
'0:05.132',0.115
'0:05.133',0.115
'0:05.135',0.115
'0:05.136',0.123
'0:05.138',0.123
'0:05.139',0.108
'0:05.140',0.092
'0:05.142',0.100
'0:05.143',0.100
'0:05.144',0.100
'0:05.146',0.108
'0:05.147',0.108
'0:05.149',0.100
'0:05.150',0.108
'0:05.151',0.100
'0:05.153',0.092
'0:05.154',0.108
'0:05.156',0.123
'0:05.157',0.108
'0:05.158',0.108
'0:05.160',0.115
'0:05.161',0.115
'0:05.163',0.108
'0:05.164',0.115
'0:05.165',0.123
'0:05.167',0.115
'0:05.168',0.123
'0:05.169',0.123
'0:05.171',0.115
'0:05.172',0.123
'0:05.174',0.123
'0:05.175',0.108
'0:05.176',0.108
'0:05.178',0.115
'0:05.179',0.123
'0:05.181',0.115
'0:05.182',0.138
'0:05.183',0.146
'0:05.185',0.146
'0:05.186',0.146
'0:05.188',0.146
'0:05.189',0.154
'0:05.190',0.162
'0:05.192',0.146
'0:05.193',0.154
'0:05.194',0.169
'0:05.196',0.169
'0:05.197',0.162
'0:05.199',0.177
'0:05.200',0.177
'0:05.201',0.177
'0:05.203',0.177
'0:05.204',0.177
'0:05.206',0.177
'0:05.207',0.177
'0:05.208',0.192
'0:05.210',0.185
'0:05.211',0.192
'0:05.213',0.200
'0:05.214',0.200
'0:05.215',0.200
'0:05.217',0.200
'0:05.218',0.200
'0:05.219',0.200
'0:05.221',0.200
'0:05.222',0.208
'0:05.224',0.208
'0:05.225',0.200
'0:05.226',0.200
'0:05.228',0.200
'0:05.229',0.208
'0:05.231',0.215
'0:05.232',0.215
'0:05.233',0.231
'0:05.235',0.238
'0:05.236',0.238
'0:05.238',0.238
'0:05.239',0.246
'0:05.240',0.246
'0:05.242',0.238
'0:05.243',0.246
'0:05.244',0.238
'0:05.246',0.231
'0:05.247',0.223
'0:05.249',0.231
'0:05.250',0.215
'0:05.251',0.215
'0:05.253',0.215
'0:05.254',0.215
'0:05.256',0.208
'0:05.257',0.208
'0:05.258',0.208
'0:05.260',0.208
'0:05.261',0.192
'0:05.263',0.200
'0:05.264',0.208
'0:05.265',0.215
'0:05.267',0.215
'0:05.268',0.223
'0:05.269',0.231
'0:05.271',0.231
'0:05.272',0.246
'0:05.274',0.246
'0:05.275',0.231
'0:05.276',0.223
'0:05.278',0.223
'0:05.279',0.223
'0:05.281',0.215
'0:05.282',0.208
'0:05.283',0.208
'0:05.285',0.208
'0:05.286',0.200
'0:05.288',0.208
'0:05.289',0.208
'0:05.290',0.200
'0:05.292',0.200
'0:05.293',0.208
'0:05.294',0.208
'0:05.296',0.208
'0:05.297',0.215
'0:05.299',0.215
'0:05.300',0.215
'0:05.301',0.223
'0:05.303',0.215
'0:05.304',0.215
'0:05.306',0.215
'0:05.307',0.215
'0:05.308',0.223
'0:05.310',0.231
'0:05.311',0.215
'0:05.313',0.215
'0:05.314',0.215
'0:05.315',0.223
'0:05.317',0.223
'0:05.318',0.231
'0:05.319',0.223
'0:05.321',0.223
'0:05.322',0.238
'0:05.324',0.238
'0:05.325',0.238
'0:05.326',0.238
'0:05.328',0.238
'0:05.329',0.246
'0:05.331',0.238
'0:05.332',0.231
'0:05.333',0.231
'0:05.335',0.238
'0:05.336',0.231
'0:05.338',0.215
'0:05.339',0.215
'0:05.340',0.215
'0:05.342',0.223
'0:05.343',0.223
'0:05.344',0.223
'0:05.346',0.215
'0:05.347',0.215
'0:05.349',0.208
'0:05.350',0.215
'0:05.351',0.223
'0:05.353',0.223
'0:05.354',0.215
'0:05.356',0.231
'0:05.357',0.231
'0:05.358',0.223
'0:05.360',0.215
'0:05.361',0.215
'0:05.363',0.200
'0:05.364',0.208
'0:05.365',0.223
'0:05.367',0.215
'0:05.368',0.223
'0:05.369',0.223
'0:05.371',0.223
'0:05.372',0.215
'0:05.374',0.223
'0:05.375',0.246
'0:05.376',0.262
'0:05.378',0.269
'0:05.379',0.285
'0:05.381',0.300
'0:05.382',0.315
'0:05.383',0.323
'0:05.385',0.323
'0:05.386',0.323
'0:05.388',0.315
'0:05.389',0.331
'0:05.390',0.331
'0:05.392',0.346
'0:05.393',0.338
'0:05.394',0.308
'0:05.396',0.285
'0:05.397',0.285
'0:05.399',0.269
'0:05.400',0.231
'0:05.401',0.215
'0:05.403',0.200
'0:05.404',0.154
'0:05.406',0.115
'0:05.407',0.069
'0:05.408',0.038
'0:05.410',0.008
'0:05.411',-0.046
'0:05.413',-0.100
'0:05.414',-0.138
'0:05.415',-0.200
'0:05.417',-0.269
'0:05.418',-0.315
'0:05.419',-0.385
'0:05.421',-0.462
'0:05.422',-0.492
'0:05.424',-0.508
'0:05.425',-0.492
'0:05.426',-0.469
'0:05.428',-0.462
'0:05.429',-0.462
'0:05.431',-0.446
'0:05.432',-0.431
'0:05.433',-0.415
'0:05.435',-0.377
'0:05.436',-0.354
'0:05.438',-0.331
'0:05.439',-0.308
'0:05.440',-0.285
'0:05.442',-0.269
'0:05.443',-0.231
'0:05.444',-0.169
'0:05.446',-0.131
'0:05.447',-0.092
'0:05.449',-0.046
'0:05.450',0.008
'0:05.451',0.046
'0:05.453',0.077
'0:05.454',0.100
'0:05.456',0.108
'0:05.457',0.108
'0:05.458',0.138
'0:05.460',0.138
'0:05.461',0.131
'0:05.463',0.162
'0:05.464',0.177
'0:05.465',0.162
'0:05.467',0.185
'0:05.468',0.192
'0:05.469',0.177
'0:05.471',0.192
'0:05.472',0.215
'0:05.474',0.215
'0:05.475',0.231
'0:05.476',0.238
'0:05.478',0.215
'0:05.479',0.215
'0:05.481',0.231
'0:05.482',0.223
'0:05.483',0.208
'0:05.485',0.215
'0:05.486',0.215
'0:05.488',0.223
'0:05.489',0.231
'0:05.490',0.238
'0:05.492',0.231
'0:05.493',0.231
'0:05.494',0.231
'0:05.496',0.231
'0:05.497',0.246
'0:05.499',0.238
'0:05.500',0.238
'0:05.501',0.238
'0:05.503',0.246
'0:05.504',0.238
'0:05.506',0.238
'0:05.507',0.238
'0:05.508',0.238
'0:05.510',0.246
'0:05.511',0.262
'0:05.513',0.262
'0:05.514',0.262
'0:05.515',0.262
'0:05.517',0.262
'0:05.518',0.254
'0:05.519',0.262
'0:05.521',0.262
'0:05.522',0.269
'0:05.524',0.269
'0:05.525',0.269
'0:05.526',0.262
'0:05.528',0.254
'0:05.529',0.269
'0:05.531',0.269
'0:05.532',0.262
'0:05.533',0.269
'0:05.535',0.269
'0:05.536',0.269
'0:05.538',0.277
'0:05.539',0.285
'0:05.540',0.277
'0:05.542',0.277
'0:05.543',0.277
'0:05.544',0.285
'0:05.546',0.292
'0:05.547',0.292
'0:05.549',0.285
'0:05.550',0.277
'0:05.551',0.285
'0:05.553',0.285
'0:05.554',0.269
'0:05.556',0.285
'0:05.557',0.285
'0:05.558',0.277
'0:05.560',0.285
'0:05.561',0.292
'0:05.563',0.292
'0:05.564',0.285
'0:05.565',0.292
'0:05.567',0.285
'0:05.568',0.292
'0:05.569',0.292
'0:05.571',0.292
'0:05.572',0.300
'0:05.574',0.300
'0:05.575',0.308
'0:05.576',0.308
'0:05.578',0.315
'0:05.579',0.323
'0:05.581',0.331
'0:05.582',0.338
'0:05.583',0.338
'0:05.585',0.331
'0:05.586',0.323
'0:05.588',0.331
'0:05.589',0.323
'0:05.590',0.315
'0:05.592',0.323
'0:05.593',0.315
'0:05.594',0.315
'0:05.596',0.323
'0:05.597',0.338
'0:05.599',0.338
'0:05.600',0.346
'0:05.601',0.338
'0:05.603',0.331
'0:05.604',0.346
'0:05.606',0.354
'0:05.607',0.354
'0:05.608',0.362
'0:05.610',0.362
'0:05.611',0.377
'0:05.613',0.369
'0:05.614',0.377
'0:05.615',0.377
'0:05.617',0.385
'0:05.618',0.392
'0:05.619',0.385
'0:05.621',0.385
'0:05.622',0.392
'0:05.624',0.385
'0:05.625',0.392
'0:05.626',0.400
'0:05.628',0.392
'0:05.629',0.392
'0:05.631',0.400
'0:05.632',0.408
'0:05.633',0.415
'0:05.635',0.415
'0:05.636',0.415
'0:05.638',0.423
'0:05.639',0.438
'0:05.640',0.438
'0:05.642',0.431
'0:05.643',0.446
'0:05.644',0.446
'0:05.646',0.446
'0:05.647',0.446
'0:05.649',0.454
'0:05.650',0.462
'0:05.651',0.446
'0:05.653',0.446
'0:05.654',0.454
'0:05.656',0.469
'0:05.657',0.462
'0:05.658',0.462
'0:05.660',0.477
'0:05.661',0.492
'0:05.663',0.485
'0:05.664',0.469
'0:05.665',0.469
'0:05.667',0.477
'0:05.668',0.469
'0:05.669',0.469
'0:05.671',0.462
'0:05.672',0.469
'0:05.674',0.469
'0:05.675',0.469
'0:05.676',0.462
'0:05.678',0.462
'0:05.679',0.462
'0:05.681',0.462
'0:05.682',0.477
'0:05.683',0.462
'0:05.685',0.446
'0:05.686',0.438
'0:05.688',0.438
'0:05.689',0.438
'0:05.690',0.438
'0:05.692',0.431
'0:05.693',0.415
'0:05.694',0.415
'0:05.696',0.408
'0:05.697',0.415
'0:05.699',0.408
'0:05.700',0.400
'0:05.701',0.400
'0:05.703',0.392
'0:05.704',0.392
'0:05.706',0.377
'0:05.707',0.369
'0:05.708',0.362
'0:05.710',0.354
'0:05.711',0.346
'0:05.713',0.346
'0:05.714',0.346
'0:05.715',0.338
'0:05.717',0.331
'0:05.718',0.315
'0:05.719',0.315
'0:05.721',0.315
'0:05.722',0.292
'0:05.724',0.285
'0:05.725',0.300
'0:05.726',0.292
'0:05.728',0.277
'0:05.729',0.269
'0:05.731',0.277
'0:05.732',0.262
'0:05.733',0.254
'0:05.735',0.254
'0:05.736',0.254
'0:05.738',0.254
'0:05.739',0.246
'0:05.740',0.238
'0:05.742',0.246
'0:05.743',0.231
'0:05.744',0.223
'0:05.746',0.231
'0:05.747',0.231
'0:05.749',0.223
'0:05.750',0.223
'0:05.751',0.238
'0:05.753',0.223
'0:05.754',0.223
'0:05.756',0.223
'0:05.757',0.223
'0:05.758',0.215
'0:05.760',0.223
'0:05.761',0.215
'0:05.763',0.215
'0:05.764',0.223
'0:05.765',0.223
'0:05.767',0.223
'0:05.768',0.223
'0:05.769',0.223
'0:05.771',0.223
'0:05.772',0.231
'0:05.774',0.238
'0:05.775',0.223
'0:05.776',0.215
'0:05.778',0.215
'0:05.779',0.215
'0:05.781',0.215
'0:05.782',0.223
'0:05.783',0.208
'0:05.785',0.200
'0:05.786',0.208
'0:05.788',0.208
'0:05.789',0.200
'0:05.790',0.208
'0:05.792',0.208
'0:05.793',0.200
'0:05.794',0.208
'0:05.796',0.215
'0:05.797',0.215
'0:05.799',0.215
'0:05.800',0.208
'0:05.801',0.200
'0:05.803',0.200
'0:05.804',0.208
'0:05.806',0.208
'0:05.807',0.208
'0:05.808',0.208
'0:05.810',0.208
'0:05.811',0.208
'0:05.813',0.208
'0:05.814',0.215
'0:05.815',0.215
'0:05.817',0.215
'0:05.818',0.208
'0:05.819',0.208
'0:05.821',0.208
'0:05.822',0.215
'0:05.824',0.208
'0:05.825',0.208
'0:05.826',0.200
'0:05.828',0.200
'0:05.829',0.192
'0:05.831',0.185
'0:05.832',0.185
'0:05.833',0.192
'0:05.835',0.192
'0:05.836',0.177
'0:05.838',0.185
'0:05.839',0.192
'0:05.840',0.192
'0:05.842',0.185
'0:05.843',0.185
'0:05.844',0.185
'0:05.846',0.192
'0:05.847',0.192
'0:05.849',0.200
'0:05.850',0.215
'0:05.851',0.223
'0:05.853',0.208
'0:05.854',0.208
'0:05.856',0.215
'0:05.857',0.223
'0:05.858',0.200
'0:05.860',0.200
'0:05.861',0.200
'0:05.863',0.192
'0:05.864',0.192
'0:05.865',0.185
'0:05.867',0.192
'0:05.868',0.185
'0:05.869',0.177
'0:05.871',0.185
'0:05.872',0.185
'0:05.874',0.192
'0:05.875',0.185
'0:05.876',0.169
'0:05.878',0.192
'0:05.879',0.192
'0:05.881',0.192
'0:05.882',0.200
'0:05.883',0.208
'0:05.885',0.200
'0:05.886',0.192
'0:05.888',0.200
'0:05.889',0.208
'0:05.890',0.208
'0:05.892',0.200
'0:05.893',0.192
'0:05.894',0.208
'0:05.896',0.200
'0:05.897',0.185
'0:05.899',0.192
'0:05.900',0.200
'0:05.901',0.208
'0:05.903',0.200
'0:05.904',0.200
'0:05.906',0.200
'0:05.907',0.200
'0:05.908',0.192
'0:05.910',0.192
'0:05.911',0.192
'0:05.913',0.185
'0:05.914',0.192
'0:05.915',0.192
'0:05.917',0.192
'0:05.918',0.192
'0:05.919',0.192
'0:05.921',0.192
'0:05.922',0.192
'0:05.924',0.185
'0:05.925',0.185
'0:05.926',0.177
'0:05.928',0.177
'0:05.929',0.177
'0:05.931',0.177
'0:05.932',0.177
'0:05.933',0.169
'0:05.935',0.177
'0:05.936',0.185
'0:05.938',0.185
'0:05.939',0.177
'0:05.940',0.185
'0:05.942',0.192
'0:05.943',0.200
'0:05.944',0.192
'0:05.946',0.192
'0:05.947',0.200
'0:05.949',0.200
'0:05.950',0.200
'0:05.951',0.200
'0:05.953',0.200
'0:05.954',0.200
'0:05.956',0.200
'0:05.957',0.208
'0:05.958',0.208
'0:05.960',0.208
'0:05.961',0.208
'0:05.963',0.208
'0:05.964',0.215
'0:05.965',0.223
'0:05.967',0.223
'0:05.968',0.215
'0:05.969',0.215
'0:05.971',0.223
'0:05.972',0.215
'0:05.974',0.208
'0:05.975',0.215
'0:05.976',0.223
'0:05.978',0.185
'0:05.979',0.192
'0:05.981',0.208
'0:05.982',0.215
'0:05.983',0.215
'0:05.985',0.223
'0:05.986',0.223
'0:05.988',0.208
'0:05.989',0.208
'0:05.990',0.215
'0:05.992',0.208
'0:05.993',0.215
'0:05.994',0.223
'0:05.996',0.215
'0:05.997',0.215
'0:05.999',0.215
'0:06.000',0.223
'0:06.001',0.215
'0:06.003',0.208
'0:06.004',0.223
'0:06.006',0.215
'0:06.007',0.215
'0:06.008',0.223
'0:06.010',0.223
'0:06.011',0.208
'0:06.013',0.215
'0:06.014',0.215
'0:06.015',0.208
'0:06.017',0.215
'0:06.018',0.215
'0:06.019',0.200
'0:06.021',0.192
'0:06.022',0.200
'0:06.024',0.200
'0:06.025',0.192
'0:06.026',0.208
'0:06.028',0.215
'0:06.029',0.215
'0:06.031',0.208
'0:06.032',0.223
'0:06.033',0.215
'0:06.035',0.208
'0:06.036',0.215
'0:06.038',0.215
'0:06.039',0.208
'0:06.040',0.223
'0:06.042',0.215
'0:06.043',0.208
'0:06.044',0.208
'0:06.046',0.215
'0:06.047',0.208
'0:06.049',0.215
'0:06.050',0.223
'0:06.051',0.215
'0:06.053',0.208
'0:06.054',0.208
'0:06.056',0.215
'0:06.057',0.223
'0:06.058',0.208
'0:06.060',0.208
'0:06.061',0.215
'0:06.063',0.215
'0:06.064',0.215
'0:06.065',0.215
'0:06.067',0.215
'0:06.068',0.215
'0:06.069',0.208
'0:06.071',0.208
'0:06.072',0.215
'0:06.074',0.208
'0:06.075',0.208
'0:06.076',0.208
'0:06.078',0.200
'0:06.079',0.200
'0:06.081',0.208
'0:06.082',0.208
'0:06.083',0.215
'0:06.085',0.215
'0:06.086',0.200
'0:06.088',0.200
'0:06.089',0.215
'0:06.090',0.208
'0:06.092',0.200
'0:06.093',0.208
'0:06.094',0.208
'0:06.096',0.208
'0:06.097',0.208
'0:06.099',0.208
'0:06.100',0.192
'0:06.101',0.208
'0:06.103',0.208
'0:06.104',0.208
'0:06.106',0.208
'0:06.107',0.215
'0:06.108',0.208
'0:06.110',0.208
'0:06.111',0.215
'0:06.113',0.215
'0:06.114',0.215
'0:06.115',0.200
'0:06.117',0.215
'0:06.118',0.215
'0:06.119',0.215
'0:06.121',0.215
'0:06.122',0.223
'0:06.124',0.215
'0:06.125',0.208
'0:06.126',0.208
'0:06.128',0.208
'0:06.129',0.200
'0:06.131',0.208
'0:06.132',0.200
'0:06.133',0.200
'0:06.135',0.200
'0:06.136',0.215
'0:06.138',0.215
'0:06.139',0.215
'0:06.140',0.215
'0:06.142',0.223
'0:06.143',0.215
'0:06.144',0.215
'0:06.146',0.223
'0:06.147',0.223
'0:06.149',0.223
'0:06.150',0.208
'0:06.151',0.215
'0:06.153',0.215
'0:06.154',0.208
'0:06.156',0.208
'0:06.157',0.200
'0:06.158',0.200
'0:06.160',0.192
'0:06.161',0.192
'0:06.163',0.208
'0:06.164',0.215
'0:06.165',0.223
'0:06.167',0.231
'0:06.168',0.238
'0:06.169',0.238
'0:06.171',0.246
'0:06.172',0.262
'0:06.174',0.254
'0:06.175',0.262
'0:06.176',0.254
'0:06.178',0.246
'0:06.179',0.254
'0:06.181',0.269
'0:06.182',0.277
'0:06.183',0.262
'0:06.185',0.254
'0:06.186',0.254
'0:06.188',0.246
'0:06.189',0.246
'0:06.190',0.254
'0:06.192',0.254
'0:06.193',0.246
'0:06.194',0.254
'0:06.196',0.277
'0:06.197',0.292
'0:06.199',0.277
'0:06.200',0.277
'0:06.201',0.277
'0:06.203',0.285
'0:06.204',0.292
'0:06.206',0.300
'0:06.207',0.308
'0:06.208',0.300
'0:06.210',0.300
'0:06.211',0.300
'0:06.213',0.308
'0:06.214',0.315
'0:06.215',0.323
'0:06.217',0.315
'0:06.218',0.315
'0:06.219',0.315
'0:06.221',0.323
'0:06.222',0.323
'0:06.224',0.323
'0:06.225',0.315
'0:06.226',0.308
'0:06.228',0.300
'0:06.229',0.308
'0:06.231',0.308
'0:06.232',0.308
'0:06.233',0.300
'0:06.235',0.308
'0:06.236',0.300
'0:06.238',0.308
'0:06.239',0.323
'0:06.240',0.315
'0:06.242',0.300
'0:06.243',0.315
'0:06.244',0.323
'0:06.246',0.308
'0:06.247',0.315
'0:06.249',0.308
'0:06.250',0.292
'0:06.251',0.292
'0:06.253',0.300
'0:06.254',0.300
'0:06.256',0.308
'0:06.257',0.292
'0:06.258',0.277
'0:06.260',0.277
'0:06.261',0.292
'0:06.263',0.285
'0:06.264',0.285
'0:06.265',0.277
'0:06.267',0.269
'0:06.268',0.262
'0:06.269',0.262
'0:06.271',0.262
'0:06.272',0.262
'0:06.274',0.262
'0:06.275',0.262
'0:06.276',0.246
'0:06.278',0.246
'0:06.279',0.246
'0:06.281',0.231
'0:06.282',0.231
'0:06.283',0.231
'0:06.285',0.231
'0:06.286',0.231
'0:06.288',0.238
'0:06.289',0.238
'0:06.290',0.231
'0:06.292',0.223
'0:06.293',0.215
'0:06.294',0.200
'0:06.296',0.215
'0:06.297',0.215
'0:06.299',0.215
'0:06.300',0.200
'0:06.301',0.200
'0:06.303',0.192
'0:06.304',0.208
'0:06.306',0.200
'0:06.307',0.208
'0:06.308',0.200
'0:06.310',0.208
'0:06.311',0.208
'0:06.313',0.200
'0:06.314',0.208
'0:06.315',0.208
'0:06.317',0.223
'0:06.318',0.223
'0:06.319',0.231
'0:06.321',0.238
'0:06.322',0.238
'0:06.324',0.238
'0:06.325',0.254
'0:06.326',0.246
'0:06.328',0.246
'0:06.329',0.254
'0:06.331',0.262
'0:06.332',0.262
'0:06.333',0.246
'0:06.335',0.254
'0:06.336',0.262
'0:06.338',0.262
'0:06.339',0.254
'0:06.340',0.254
'0:06.342',0.262
'0:06.343',0.269
'0:06.344',0.269
'0:06.346',0.277
'0:06.347',0.285
'0:06.349',0.300
'0:06.350',0.315
'0:06.351',0.331
'0:06.353',0.346
'0:06.354',0.362
'0:06.356',0.369
'0:06.357',0.392
'0:06.358',0.415
'0:06.360',0.431
'0:06.361',0.438
'0:06.363',0.462
'0:06.364',0.492
'0:06.365',0.508
'0:06.367',0.531
'0:06.368',0.554
'0:06.369',0.562
'0:06.371',0.569
'0:06.372',0.569
'0:06.374',0.554
'0:06.375',0.546
'0:06.376',0.554
'0:06.378',0.554
'0:06.379',0.531
'0:06.381',0.531
'0:06.382',0.515
'0:06.383',0.492
'0:06.385',0.462
'0:06.386',0.446
'0:06.388',0.423
'0:06.389',0.400
'0:06.390',0.385
'0:06.392',0.392
'0:06.393',0.369
'0:06.394',0.362
'0:06.396',0.369
'0:06.397',0.354
'0:06.399',0.346
'0:06.400',0.354
'0:06.401',0.338
'0:06.403',0.323
'0:06.404',0.338
'0:06.406',0.362
'0:06.407',0.346
'0:06.408',0.354
'0:06.410',0.346
'0:06.411',0.338
'0:06.413',0.338
'0:06.414',0.338
'0:06.415',0.323
'0:06.417',0.315
'0:06.418',0.308
'0:06.419',0.308
'0:06.421',0.308
'0:06.422',0.285
'0:06.424',0.262
'0:06.425',0.262
'0:06.426',0.269
'0:06.428',0.246
'0:06.429',0.238
'0:06.431',0.246
'0:06.432',0.238
'0:06.433',0.231
'0:06.435',0.231
'0:06.436',0.223
'0:06.438',0.223
'0:06.439',0.231
'0:06.440',0.223
'0:06.442',0.223
'0:06.443',0.231
'0:06.444',0.231
'0:06.446',0.231
'0:06.447',0.223
'0:06.449',0.208
'0:06.450',0.215
'0:06.451',0.208
'0:06.453',0.215
'0:06.454',0.208
'0:06.456',0.215
'0:06.457',0.223
'0:06.458',0.215
'0:06.460',0.215
'0:06.461',0.208
'0:06.463',0.223
'0:06.464',0.215
'0:06.465',0.215
'0:06.467',0.215
'0:06.468',0.208
'0:06.469',0.200
'0:06.471',0.215
'0:06.472',0.215
'0:06.474',0.215
'0:06.475',0.215
'0:06.476',0.215
'0:06.478',0.215
'0:06.479',0.223
'0:06.481',0.223
'0:06.482',0.215
'0:06.483',0.215
'0:06.485',0.223
'0:06.486',0.223
'0:06.488',0.215
'0:06.489',0.215
'0:06.490',0.215
'0:06.492',0.215
'0:06.493',0.215
'0:06.494',0.215
'0:06.496',0.223
'0:06.497',0.231
'0:06.499',0.231
'0:06.500',0.238
'0:06.501',0.231
'0:06.503',0.231
'0:06.504',0.231
'0:06.506',0.231
'0:06.507',0.231
'0:06.508',0.231
'0:06.510',0.231
'0:06.511',0.231
'0:06.513',0.238
'0:06.514',0.223
'0:06.515',0.215
'0:06.517',0.223
'0:06.518',0.215
'0:06.519',0.200
'0:06.521',0.200
'0:06.522',0.215
'0:06.524',0.208
'0:06.525',0.215
'0:06.526',0.200
'0:06.528',0.200
'0:06.529',0.208
'0:06.531',0.200
'0:06.532',0.200
'0:06.533',0.208
'0:06.535',0.200
'0:06.536',0.200
'0:06.538',0.208
'0:06.539',0.200
'0:06.540',0.177
'0:06.542',0.192
'0:06.543',0.192
'0:06.544',0.185
'0:06.546',0.177
'0:06.547',0.185
'0:06.549',0.169
'0:06.550',0.169
'0:06.551',0.177
'0:06.553',0.162
'0:06.554',0.169
'0:06.556',0.177
'0:06.557',0.169
'0:06.558',0.162
'0:06.560',0.162
'0:06.561',0.162
'0:06.563',0.169
'0:06.564',0.177
'0:06.565',0.169
'0:06.567',0.177
'0:06.568',0.177
'0:06.569',0.177
'0:06.571',0.169
'0:06.572',0.154
'0:06.574',0.169
'0:06.575',0.162
'0:06.576',0.162
'0:06.578',0.162
'0:06.579',0.169
'0:06.581',0.169
'0:06.582',0.169
'0:06.583',0.177
'0:06.585',0.169
'0:06.586',0.162
'0:06.588',0.169
'0:06.589',0.177
'0:06.590',0.177
'0:06.592',0.169
'0:06.593',0.177
'0:06.594',0.177
'0:06.596',0.177
'0:06.597',0.177
'0:06.599',0.185
'0:06.600',0.177
'0:06.601',0.162
'0:06.603',0.162
'0:06.604',0.162
'0:06.606',0.146
'0:06.607',0.138
'0:06.608',0.138
'0:06.610',0.138
'0:06.611',0.138
'0:06.613',0.146
'0:06.614',0.146
'0:06.615',0.138
'0:06.617',0.131
'0:06.618',0.131
'0:06.619',0.131
'0:06.621',0.131
'0:06.622',0.123
'0:06.624',0.115
'0:06.625',0.123
'0:06.626',0.123
'0:06.628',0.100
'0:06.629',0.100
'0:06.631',0.100
'0:06.632',0.085
'0:06.633',0.085
'0:06.635',0.100
'0:06.636',0.092
'0:06.638',0.085
'0:06.639',0.085
'0:06.640',0.077
'0:06.642',0.069
'0:06.643',0.092
'0:06.644',0.100
'0:06.646',0.092
'0:06.647',0.100
'0:06.649',0.092
'0:06.650',0.092
'0:06.651',0.108
'0:06.653',0.108
'0:06.654',0.115
'0:06.656',0.131
'0:06.657',0.131
'0:06.658',0.123
'0:06.660',0.123
'0:06.661',0.123
'0:06.663',0.115
'0:06.664',0.115
'0:06.665',0.123
'0:06.667',0.123
'0:06.668',0.115
'0:06.669',0.123
'0:06.671',0.138
'0:06.672',0.138
'0:06.674',0.131
'0:06.675',0.123
'0:06.676',0.131
'0:06.678',0.131
'0:06.679',0.131
'0:06.681',0.138
'0:06.682',0.154
'0:06.683',0.146
'0:06.685',0.154
'0:06.686',0.169
'0:06.688',0.169
'0:06.689',0.177
'0:06.690',0.177
'0:06.692',0.169
'0:06.693',0.169
'0:06.694',0.192
'0:06.696',0.185
'0:06.697',0.162
'0:06.699',0.169
'0:06.700',0.192
'0:06.701',0.185
'0:06.703',0.192
'0:06.704',0.200
'0:06.706',0.200
'0:06.707',0.192
'0:06.708',0.208
'0:06.710',0.208
'0:06.711',0.200
'0:06.713',0.200
'0:06.714',0.200
'0:06.715',0.208
'0:06.717',0.215
'0:06.718',0.208
'0:06.719',0.200
'0:06.721',0.200
'0:06.722',0.200
'0:06.724',0.208
'0:06.725',0.200
'0:06.726',0.208
'0:06.728',0.215
'0:06.729',0.223
'0:06.731',0.231
'0:06.732',0.223
'0:06.733',0.223
'0:06.735',0.238
'0:06.736',0.246
'0:06.738',0.246
'0:06.739',0.238
'0:06.740',0.223
'0:06.742',0.231
'0:06.743',0.223
'0:06.744',0.215
'0:06.746',0.215
'0:06.747',0.208
'0:06.749',0.208
'0:06.750',0.208
'0:06.751',0.208
'0:06.753',0.208
'0:06.754',0.215
'0:06.756',0.215
'0:06.757',0.215
'0:06.758',0.208
'0:06.760',0.215
'0:06.761',0.215
'0:06.763',0.215
'0:06.764',0.215
'0:06.765',0.223
'0:06.767',0.223
'0:06.768',0.223
'0:06.769',0.223
'0:06.771',0.231
'0:06.772',0.231
'0:06.774',0.215
'0:06.775',0.215
'0:06.776',0.208
'0:06.778',0.208
'0:06.779',0.215
'0:06.781',0.223
'0:06.782',0.223
'0:06.783',0.223
'0:06.785',0.215
'0:06.786',0.215
'0:06.788',0.223
'0:06.789',0.223
'0:06.790',0.208
'0:06.792',0.215
'0:06.793',0.215
'0:06.794',0.223
'0:06.796',0.223
'0:06.797',0.215
'0:06.799',0.223
'0:06.800',0.215
'0:06.801',0.223
'0:06.803',0.223
'0:06.804',0.215
'0:06.806',0.215
'0:06.807',0.208
'0:06.808',0.215
'0:06.810',0.215
'0:06.811',0.223
'0:06.813',0.231
'0:06.814',0.231
'0:06.815',0.231
'0:06.817',0.231
'0:06.818',0.238
'0:06.819',0.238
'0:06.821',0.246
'0:06.822',0.238
'0:06.824',0.231
'0:06.825',0.215
'0:06.826',0.223
'0:06.828',0.231
'0:06.829',0.231
'0:06.831',0.223
'0:06.832',0.223
'0:06.833',0.215
'0:06.835',0.223
'0:06.836',0.215
'0:06.838',0.215
'0:06.839',0.208
'0:06.840',0.215
'0:06.842',0.215
'0:06.843',0.215
'0:06.844',0.208
'0:06.846',0.223
'0:06.847',0.223
'0:06.849',0.208
'0:06.850',0.208
'0:06.851',0.215
'0:06.853',0.208
'0:06.854',0.215
'0:06.856',0.215
'0:06.857',0.208
'0:06.858',0.200
'0:06.860',0.200
'0:06.861',0.215
'0:06.863',0.200
'0:06.864',0.200
'0:06.865',0.208
'0:06.867',0.215
'0:06.868',0.223
'0:06.869',0.238
'0:06.871',0.254
'0:06.872',0.269
'0:06.874',0.292
'0:06.875',0.308
'0:06.876',0.308
'0:06.878',0.315
'0:06.879',0.338
'0:06.881',0.346
'0:06.882',0.346
'0:06.883',0.346
'0:06.885',0.338
'0:06.886',0.346
'0:06.888',0.362
'0:06.889',0.338
'0:06.890',0.315
'0:06.892',0.300
'0:06.893',0.292
'0:06.894',0.269
'0:06.896',0.246
'0:06.897',0.231
'0:06.899',0.192
'0:06.900',0.154
'0:06.901',0.123
'0:06.903',0.092
'0:06.904',0.062
'0:06.906',0.008
'0:06.907',-0.038
'0:06.908',-0.077
'0:06.910',-0.138
'0:06.911',-0.200
'0:06.913',-0.254
'0:06.914',-0.300
'0:06.915',-0.369
'0:06.917',-0.431
'0:06.918',-0.500
'0:06.919',-0.523
'0:06.921',-0.508
'0:06.922',-0.485
'0:06.924',-0.477
'0:06.925',-0.462
'0:06.926',-0.454
'0:06.928',-0.431
'0:06.929',-0.415
'0:06.931',-0.392
'0:06.932',-0.362
'0:06.933',-0.338
'0:06.935',-0.323
'0:06.936',-0.300
'0:06.938',-0.262
'0:06.939',-0.231
'0:06.940',-0.208
'0:06.942',-0.138
'0:06.943',-0.092
'0:06.944',-0.062
'0:06.946',0.000
'0:06.947',0.046
'0:06.949',0.069
'0:06.950',0.100
'0:06.951',0.108
'0:06.953',0.100
'0:06.954',0.123
'0:06.956',0.138
'0:06.957',0.123
'0:06.958',0.138
'0:06.960',0.162
'0:06.961',0.162
'0:06.963',0.169
'0:06.964',0.185
'0:06.965',0.185
'0:06.967',0.192
'0:06.968',0.200
'0:06.969',0.215
'0:06.971',0.215
'0:06.972',0.215
'0:06.974',0.223
'0:06.975',0.223
'0:06.976',0.223
'0:06.978',0.223
'0:06.979',0.223
'0:06.981',0.223
'0:06.982',0.223
'0:06.983',0.231
'0:06.985',0.223
'0:06.986',0.223
'0:06.988',0.238
'0:06.989',0.246
'0:06.990',0.246
'0:06.992',0.246
'0:06.993',0.254
'0:06.994',0.254
'0:06.996',0.246
'0:06.997',0.238
'0:06.999',0.246
'0:07.000',0.246
'0:07.001',0.238
'0:07.003',0.246
'0:07.004',0.262
'0:07.006',0.269
'0:07.007',0.262
'0:07.008',0.269
'0:07.010',0.277
'0:07.011',0.269
'0:07.013',0.269
'0:07.014',0.262
'0:07.015',0.269
'0:07.017',0.262
'0:07.018',0.277
'0:07.019',0.277
'0:07.021',0.285
'0:07.022',0.277
'0:07.024',0.269
'0:07.025',0.262
'0:07.026',0.277
'0:07.028',0.285
'0:07.029',0.277
'0:07.031',0.285
'0:07.032',0.285
'0:07.033',0.269
'0:07.035',0.269
'0:07.036',0.285
'0:07.038',0.300
'0:07.039',0.308
'0:07.040',0.308
'0:07.042',0.300
'0:07.043',0.292
'0:07.044',0.300
'0:07.046',0.315
'0:07.047',0.308
'0:07.049',0.308
'0:07.050',0.315
'0:07.051',0.300
'0:07.053',0.292
'0:07.054',0.300
'0:07.056',0.300
'0:07.057',0.300
'0:07.058',0.285
'0:07.060',0.285
'0:07.061',0.285
'0:07.063',0.292
'0:07.064',0.300
'0:07.065',0.300
'0:07.067',0.292
'0:07.068',0.285
'0:07.069',0.285
'0:07.071',0.292
'0:07.072',0.308
'0:07.074',0.315
'0:07.075',0.308
'0:07.076',0.323
'0:07.078',0.315
'0:07.079',0.331
'0:07.081',0.331
'0:07.082',0.323
'0:07.083',0.315
'0:07.085',0.315
'0:07.086',0.315
'0:07.088',0.315
'0:07.089',0.315
'0:07.090',0.308
'0:07.092',0.323
'0:07.093',0.331
'0:07.094',0.323
'0:07.096',0.331
'0:07.097',0.331
'0:07.099',0.331
'0:07.100',0.346
'0:07.101',0.346
'0:07.103',0.362
'0:07.104',0.369
'0:07.106',0.369
'0:07.107',0.385
'0:07.108',0.377
'0:07.110',0.369
'0:07.111',0.392
'0:07.113',0.408
'0:07.114',0.392
'0:07.115',0.400
'0:07.117',0.415
'0:07.118',0.400
'0:07.119',0.400
'0:07.121',0.415
'0:07.122',0.408
'0:07.124',0.408
'0:07.125',0.431
'0:07.126',0.415
'0:07.128',0.415
'0:07.129',0.431
'0:07.131',0.438
'0:07.132',0.446
'0:07.133',0.462
'0:07.135',0.454
'0:07.136',0.454
'0:07.138',0.477
'0:07.139',0.485
'0:07.140',0.469
'0:07.142',0.462
'0:07.143',0.485
'0:07.144',0.485
'0:07.146',0.477
'0:07.147',0.469
'0:07.149',0.477
'0:07.150',0.477
'0:07.151',0.469
'0:07.153',0.477
'0:07.154',0.477
'0:07.156',0.477
'0:07.157',0.485
'0:07.158',0.492
'0:07.160',0.485
'0:07.161',0.477
'0:07.163',0.485
'0:07.164',0.492
'0:07.165',0.462
'0:07.167',0.454
'0:07.168',0.462
'0:07.169',0.469
'0:07.171',0.485
'0:07.172',0.477
'0:07.174',0.469
'0:07.175',0.454
'0:07.176',0.469
'0:07.178',0.469
'0:07.179',0.454
'0:07.181',0.446
'0:07.182',0.446
'0:07.183',0.446
'0:07.185',0.438
'0:07.186',0.431
'0:07.188',0.431
'0:07.189',0.423
'0:07.190',0.415
'0:07.192',0.400
'0:07.193',0.400
'0:07.194',0.400
'0:07.196',0.400
'0:07.197',0.400
'0:07.199',0.400
'0:07.200',0.385
'0:07.201',0.377
'0:07.203',0.369
'0:07.204',0.369
'0:07.206',0.346
'0:07.207',0.354
'0:07.208',0.362
'0:07.210',0.346
'0:07.211',0.323
'0:07.213',0.331
'0:07.214',0.331
'0:07.215',0.315
'0:07.217',0.300
'0:07.218',0.300
'0:07.219',0.300
'0:07.221',0.292
'0:07.222',0.285
'0:07.224',0.277
'0:07.225',0.262
'0:07.226',0.262
'0:07.228',0.262
'0:07.229',0.262
'0:07.231',0.262
'0:07.232',0.254
'0:07.233',0.238
'0:07.235',0.238
'0:07.236',0.238
'0:07.238',0.246
'0:07.239',0.238
'0:07.240',0.246
'0:07.242',0.238
'0:07.243',0.231
'0:07.244',0.223
'0:07.246',0.223
'0:07.247',0.223
'0:07.249',0.223
'0:07.250',0.200
'0:07.251',0.208
'0:07.253',0.223
'0:07.254',0.223
'0:07.256',0.223
'0:07.257',0.223
'0:07.258',0.231
'0:07.260',0.223
'0:07.261',0.231
'0:07.263',0.238
'0:07.264',0.238
'0:07.265',0.231
'0:07.267',0.231
'0:07.268',0.223
'0:07.269',0.200
'0:07.271',0.215
'0:07.272',0.215
'0:07.274',0.192
'0:07.275',0.200
'0:07.276',0.208
'0:07.278',0.200
'0:07.279',0.208
'0:07.281',0.208
'0:07.282',0.208
'0:07.283',0.208
'0:07.285',0.200
'0:07.286',0.200
'0:07.288',0.200
'0:07.289',0.208
'0:07.290',0.215
'0:07.292',0.208
'0:07.293',0.208
'0:07.294',0.223
'0:07.296',0.215
'0:07.297',0.215
'0:07.299',0.215
'0:07.300',0.215
'0:07.301',0.215
'0:07.303',0.215
'0:07.304',0.215
'0:07.306',0.215
'0:07.307',0.215
'0:07.308',0.223
'0:07.310',0.208
'0:07.311',0.208
'0:07.313',0.208
'0:07.314',0.215
'0:07.315',0.200
'0:07.317',0.208
'0:07.318',0.208
'0:07.319',0.200
'0:07.321',0.192
'0:07.322',0.200
'0:07.324',0.192
'0:07.325',0.177
'0:07.326',0.177
'0:07.328',0.177
'0:07.329',0.177
'0:07.331',0.185
'0:07.332',0.192
'0:07.333',0.177
'0:07.335',0.177
'0:07.336',0.185
'0:07.338',0.177
'0:07.339',0.177
'0:07.340',0.185
'0:07.342',0.192
'0:07.343',0.192
'0:07.344',0.185
'0:07.346',0.185
'0:07.347',0.192
'0:07.349',0.200
'0:07.350',0.185
'0:07.351',0.185
'0:07.353',0.185
'0:07.354',0.192
'0:07.356',0.192
'0:07.357',0.177
'0:07.358',0.162
'0:07.360',0.162
'0:07.361',0.169
'0:07.363',0.162
'0:07.364',0.162
'0:07.365',0.162
'0:07.367',0.169
'0:07.368',0.162
'0:07.369',0.169
'0:07.371',0.185
'0:07.372',0.177
'0:07.374',0.177
'0:07.375',0.185
'0:07.376',0.192
'0:07.378',0.192
'0:07.379',0.185
'0:07.381',0.200
'0:07.382',0.192
'0:07.383',0.192
'0:07.385',0.185
'0:07.386',0.192
'0:07.388',0.215
'0:07.389',0.200
'0:07.390',0.192
'0:07.392',0.200
'0:07.393',0.208
'0:07.394',0.200
'0:07.396',0.200
'0:07.397',0.215
'0:07.399',0.200
'0:07.400',0.192
'0:07.401',0.208
'0:07.403',0.200
'0:07.404',0.192
'0:07.406',0.208
'0:07.407',0.215
'0:07.408',0.208
'0:07.410',0.208
'0:07.411',0.208
'0:07.413',0.200
'0:07.414',0.200
'0:07.415',0.200
'0:07.417',0.208
'0:07.418',0.200
'0:07.419',0.208
'0:07.421',0.200
'0:07.422',0.185
'0:07.424',0.177
'0:07.425',0.177
'0:07.426',0.169
'0:07.428',0.177
'0:07.429',0.177
'0:07.431',0.169
'0:07.432',0.185
'0:07.433',0.177
'0:07.435',0.192
'0:07.436',0.200
'0:07.438',0.192
'0:07.439',0.185
'0:07.440',0.200
'0:07.442',0.192
'0:07.443',0.185
'0:07.444',0.192
'0:07.446',0.192
'0:07.447',0.192
'0:07.449',0.192
'0:07.450',0.200
'0:07.451',0.208
'0:07.453',0.200
'0:07.454',0.192
'0:07.456',0.192
'0:07.457',0.200
'0:07.458',0.200
'0:07.460',0.192
'0:07.461',0.200
'0:07.463',0.215
'0:07.464',0.215
'0:07.465',0.215
'0:07.467',0.215
'0:07.468',0.208
'0:07.469',0.208
'0:07.471',0.223
'0:07.472',0.215
'0:07.474',0.208
'0:07.475',0.192
'0:07.476',0.200
'0:07.478',0.208
'0:07.479',0.208
'0:07.481',0.200
'0:07.482',0.200
'0:07.483',0.200
'0:07.485',0.200
'0:07.486',0.192
'0:07.488',0.192
'0:07.489',0.208
'0:07.490',0.215
'0:07.492',0.208
'0:07.493',0.208
'0:07.494',0.208
'0:07.496',0.208
'0:07.497',0.208
'0:07.499',0.200
'0:07.500',0.200
'0:07.501',0.208
'0:07.503',0.200
'0:07.504',0.208
'0:07.506',0.200
'0:07.507',0.192
'0:07.508',0.200
'0:07.510',0.208
'0:07.511',0.208
'0:07.513',0.200
'0:07.514',0.192
'0:07.515',0.192
'0:07.517',0.185
'0:07.518',0.185
'0:07.519',0.200
'0:07.521',0.200
'0:07.522',0.200
'0:07.524',0.200
'0:07.525',0.208
'0:07.526',0.208
'0:07.528',0.200
'0:07.529',0.200
'0:07.531',0.200
'0:07.532',0.208
'0:07.533',0.200
'0:07.535',0.200
'0:07.536',0.208
'0:07.538',0.192
'0:07.539',0.192
'0:07.540',0.200
'0:07.542',0.192
'0:07.543',0.192
'0:07.544',0.200
'0:07.546',0.200
'0:07.547',0.192
'0:07.549',0.200
'0:07.550',0.200
'0:07.551',0.192
'0:07.553',0.192
'0:07.554',0.192
'0:07.556',0.200
'0:07.557',0.192
'0:07.558',0.200
'0:07.560',0.192
'0:07.561',0.192
'0:07.563',0.192
'0:07.564',0.185
'0:07.565',0.200
'0:07.567',0.208
'0:07.568',0.200
'0:07.569',0.200
'0:07.571',0.200
'0:07.572',0.200
'0:07.574',0.192
'0:07.575',0.185
'0:07.576',0.185
'0:07.578',0.185
'0:07.579',0.185
'0:07.581',0.192
'0:07.582',0.185
'0:07.583',0.185
'0:07.585',0.192
'0:07.586',0.192
'0:07.588',0.185
'0:07.589',0.192
'0:07.590',0.192
'0:07.592',0.185
'0:07.593',0.185
'0:07.594',0.192
'0:07.596',0.192
'0:07.597',0.185
'0:07.599',0.192
'0:07.600',0.192
'0:07.601',0.185
'0:07.603',0.185
'0:07.604',0.185
'0:07.606',0.185
'0:07.607',0.192
'0:07.608',0.200
'0:07.610',0.200
'0:07.611',0.185
'0:07.613',0.200
'0:07.614',0.200
'0:07.615',0.208
'0:07.617',0.208
'0:07.618',0.208
'0:07.619',0.208
'0:07.621',0.208
'0:07.622',0.208
'0:07.624',0.200
'0:07.625',0.192
'0:07.626',0.208
'0:07.628',0.208
'0:07.629',0.215
'0:07.631',0.215
'0:07.632',0.215
'0:07.633',0.223
'0:07.635',0.223
'0:07.636',0.231
'0:07.638',0.231
'0:07.639',0.238
'0:07.640',0.223
'0:07.642',0.223
'0:07.643',0.231
'0:07.644',0.238
'0:07.646',0.238
'0:07.647',0.231
'0:07.649',0.223
'0:07.650',0.215
'0:07.651',0.223
'0:07.653',0.223
'0:07.654',0.223
'0:07.656',0.223
'0:07.657',0.231
'0:07.658',0.231
'0:07.660',0.238
'0:07.661',0.238
'0:07.663',0.246
'0:07.664',0.246
'0:07.665',0.254
'0:07.667',0.254
'0:07.668',0.254
'0:07.669',0.269
'0:07.671',0.277
'0:07.672',0.269
'0:07.674',0.277
'0:07.675',0.269
'0:07.676',0.269
'0:07.678',0.262
'0:07.679',0.262
'0:07.681',0.262
'0:07.682',0.269
'0:07.683',0.269
'0:07.685',0.262
'0:07.686',0.254
'0:07.688',0.254
'0:07.689',0.254
'0:07.690',0.254
'0:07.692',0.254
'0:07.693',0.254
'0:07.694',0.254
'0:07.696',0.269
'0:07.697',0.277
'0:07.699',0.277
'0:07.700',0.277
'0:07.701',0.277
'0:07.703',0.277
'0:07.704',0.269
'0:07.706',0.285
'0:07.707',0.285
'0:07.708',0.285
'0:07.710',0.292
'0:07.711',0.300
'0:07.713',0.292
'0:07.714',0.300
'0:07.715',0.315
'0:07.717',0.300
'0:07.718',0.300
'0:07.719',0.300
'0:07.721',0.300
'0:07.722',0.300
'0:07.724',0.308
'0:07.725',0.308
'0:07.726',0.292
'0:07.728',0.292
'0:07.729',0.300
'0:07.731',0.308
'0:07.732',0.315
'0:07.733',0.308
'0:07.735',0.315
'0:07.736',0.315
'0:07.738',0.315
'0:07.739',0.323
'0:07.740',0.331
'0:07.742',0.315
'0:07.743',0.308
'0:07.744',0.300
'0:07.746',0.323
'0:07.747',0.323
'0:07.749',0.315
'0:07.750',0.315
'0:07.751',0.300
'0:07.753',0.308
'0:07.754',0.323
'0:07.756',0.308
'0:07.757',0.292
'0:07.758',0.292
'0:07.760',0.285
'0:07.761',0.285
'0:07.763',0.285
'0:07.764',0.292
'0:07.765',0.285
'0:07.767',0.277
'0:07.768',0.269
'0:07.769',0.269
'0:07.771',0.262
'0:07.772',0.262
'0:07.774',0.254
'0:07.775',0.262
'0:07.776',0.262
'0:07.778',0.262
'0:07.779',0.262
'0:07.781',0.262
'0:07.782',0.246
'0:07.783',0.238
'0:07.785',0.231
'0:07.786',0.231
'0:07.788',0.223
'0:07.789',0.200
'0:07.790',0.208
'0:07.792',0.215
'0:07.793',0.223
'0:07.794',0.215
'0:07.796',0.215
'0:07.797',0.208
'0:07.799',0.208
'0:07.800',0.208
'0:07.801',0.215
'0:07.803',0.215
'0:07.804',0.215
'0:07.806',0.215
'0:07.807',0.208
'0:07.808',0.215
'0:07.810',0.223
'0:07.811',0.215
'0:07.813',0.215
'0:07.814',0.231
'0:07.815',0.231
'0:07.817',0.215
'0:07.818',0.215
'0:07.819',0.223
'0:07.821',0.223
'0:07.822',0.215
'0:07.824',0.231
'0:07.825',0.238
'0:07.826',0.246
'0:07.828',0.238
'0:07.829',0.246
'0:07.831',0.246
'0:07.832',0.231
'0:07.833',0.238
'0:07.835',0.231
'0:07.836',0.223
'0:07.838',0.246
'0:07.839',0.262
'0:07.840',0.277
'0:07.842',0.285
'0:07.843',0.292
'0:07.844',0.308
'0:07.846',0.308
'0:07.847',0.331
'0:07.849',0.354
'0:07.850',0.369
'0:07.851',0.369
'0:07.853',0.400
'0:07.854',0.423
'0:07.856',0.438
'0:07.857',0.446
'0:07.858',0.469
'0:07.860',0.492
'0:07.861',0.515
'0:07.863',0.546
'0:07.864',0.562
'0:07.865',0.562
'0:07.867',0.569
'0:07.868',0.569
'0:07.869',0.554
'0:07.871',0.554
'0:07.872',0.569
'0:07.874',0.546
'0:07.875',0.538
'0:07.876',0.546
'0:07.878',0.500
'0:07.879',0.469
'0:07.881',0.462
'0:07.882',0.446
'0:07.883',0.423
'0:07.885',0.392
'0:07.886',0.369
'0:07.888',0.377
'0:07.889',0.377
'0:07.890',0.377
'0:07.892',0.369
'0:07.893',0.369
'0:07.894',0.377
'0:07.896',0.346
'0:07.897',0.354
'0:07.899',0.362
'0:07.900',0.346
'0:07.901',0.331
'0:07.903',0.346
'0:07.904',0.346
'0:07.906',0.331
'0:07.907',0.315
'0:07.908',0.315
'0:07.910',0.315
'0:07.911',0.331
'0:07.913',0.315
'0:07.914',0.308
'0:07.915',0.308
'0:07.917',0.308
'0:07.918',0.285
'0:07.919',0.277
'0:07.921',0.269
'0:07.922',0.262
'0:07.924',0.246
'0:07.925',0.238
'0:07.926',0.238
'0:07.928',0.246
'0:07.929',0.254
'0:07.931',0.246
'0:07.932',0.238
'0:07.933',0.231
'0:07.935',0.223
'0:07.936',0.215
'0:07.938',0.223
'0:07.939',0.215
'0:07.940',0.200
'0:07.942',0.208
'0:07.943',0.208
'0:07.944',0.200
'0:07.946',0.208
'0:07.947',0.215
'0:07.949',0.208
'0:07.950',0.208
'0:07.951',0.208
'0:07.953',0.208
'0:07.954',0.208
'0:07.956',0.215
'0:07.957',0.208
'0:07.958',0.208
'0:07.960',0.208
'0:07.961',0.215
'0:07.963',0.215
'0:07.964',0.215
'0:07.965',0.200
'0:07.967',0.208
'0:07.968',0.208
'0:07.969',0.208
'0:07.971',0.200
'0:07.972',0.208
'0:07.974',0.208
'0:07.975',0.192
'0:07.976',0.192
'0:07.978',0.200
'0:07.979',0.192
'0:07.981',0.192
'0:07.982',0.192
'0:07.983',0.192
'0:07.985',0.185
'0:07.986',0.192
'0:07.988',0.192
'0:07.989',0.192
'0:07.990',0.192
'0:07.992',0.192
'0:07.993',0.208
'0:07.994',0.215
'0:07.996',0.215
'0:07.997',0.208
'0:07.999',0.200
'0:08.000',0.215
'0:08.001',0.215
'0:08.003',0.215
'0:08.004',0.215
'0:08.006',0.200
'0:08.007',0.200
'0:08.008',0.208
'0:08.010',0.208
'0:08.011',0.200
'0:08.013',0.208
'0:08.014',0.215
'0:08.015',0.200
'0:08.017',0.192
'0:08.018',0.200
'0:08.019',0.200
'0:08.021',0.200
'0:08.022',0.215
'0:08.024',0.208
'0:08.025',0.200
'0:08.026',0.208
'0:08.028',0.215
'0:08.029',0.208
'0:08.031',0.215
'0:08.032',0.208
'0:08.033',0.208
'0:08.035',0.208
'0:08.036',0.200
'0:08.038',0.200
'0:08.039',0.200
'0:08.040',0.200
'0:08.042',0.185
'0:08.043',0.185
'0:08.044',0.192
'0:08.046',0.185
'0:08.047',0.185
'0:08.049',0.192
'0:08.050',0.185
'0:08.051',0.185
'0:08.053',0.192
'0:08.054',0.192
'0:08.056',0.177
'0:08.057',0.185
'0:08.058',0.185
'0:08.060',0.169
'0:08.061',0.169
'0:08.063',0.177
'0:08.064',0.177
'0:08.065',0.177
'0:08.067',0.177
'0:08.068',0.177
'0:08.069',0.169
'0:08.071',0.177
'0:08.072',0.177
'0:08.074',0.177
'0:08.075',0.177
'0:08.076',0.177
'0:08.078',0.185
'0:08.079',0.192
'0:08.081',0.200
'0:08.082',0.185
'0:08.083',0.169
'0:08.085',0.169
'0:08.086',0.169
'0:08.088',0.162
'0:08.089',0.162
'0:08.090',0.162
'0:08.092',0.162
'0:08.093',0.154
'0:08.094',0.162
'0:08.096',0.162
'0:08.097',0.154
'0:08.099',0.146
'0:08.100',0.146
'0:08.101',0.138
'0:08.103',0.131
'0:08.104',0.138
'0:08.106',0.131
'0:08.107',0.138
'0:08.108',0.138
'0:08.110',0.123
'0:08.111',0.123
'0:08.113',0.115
'0:08.114',0.123
'0:08.115',0.115
'0:08.117',0.123
'0:08.118',0.123
'0:08.119',0.108
'0:08.121',0.100
'0:08.122',0.108
'0:08.124',0.092
'0:08.125',0.092
'0:08.126',0.100
'0:08.128',0.085
'0:08.129',0.077
'0:08.131',0.092
'0:08.132',0.085
'0:08.133',0.069
'0:08.135',0.069
'0:08.136',0.069
'0:08.138',0.069
'0:08.139',0.085
'0:08.140',0.092
'0:08.142',0.085
'0:08.143',0.092
'0:08.144',0.092
'0:08.146',0.092
'0:08.147',0.100
'0:08.149',0.100
'0:08.150',0.100
'0:08.151',0.108
'0:08.153',0.108
'0:08.154',0.108
'0:08.156',0.115
'0:08.157',0.115
'0:08.158',0.115
'0:08.160',0.100
'0:08.161',0.108
'0:08.163',0.115
'0:08.164',0.115
'0:08.165',0.115
'0:08.167',0.115
'0:08.168',0.108
'0:08.169',0.115
'0:08.171',0.115
'0:08.172',0.131
'0:08.174',0.131
'0:08.175',0.131
'0:08.176',0.131
'0:08.178',0.138
'0:08.179',0.138
'0:08.181',0.146
'0:08.182',0.146
'0:08.183',0.138
'0:08.185',0.162
'0:08.186',0.169
'0:08.188',0.169
'0:08.189',0.169
'0:08.190',0.169
'0:08.192',0.177
'0:08.193',0.169
'0:08.194',0.185
'0:08.196',0.192
'0:08.197',0.177
'0:08.199',0.185
'0:08.200',0.192
'0:08.201',0.192
'0:08.203',0.192
'0:08.204',0.200
'0:08.206',0.208
'0:08.207',0.200
'0:08.208',0.200
'0:08.210',0.200
'0:08.211',0.192
'0:08.213',0.200
'0:08.214',0.208
'0:08.215',0.185
'0:08.217',0.200
'0:08.218',0.200
'0:08.219',0.200
'0:08.221',0.192
'0:08.222',0.200
'0:08.224',0.208
'0:08.225',0.200
'0:08.226',0.208
'0:08.228',0.208
'0:08.229',0.208
'0:08.231',0.215
'0:08.232',0.215
'0:08.233',0.215
'0:08.235',0.223
'0:08.236',0.231
'0:08.238',0.223
'0:08.239',0.208
'0:08.240',0.215
'0:08.242',0.208
'0:08.243',0.200
'0:08.244',0.192
'0:08.246',0.192
'0:08.247',0.208
'0:08.249',0.200
'0:08.250',0.200
'0:08.251',0.208
'0:08.253',0.200
'0:08.254',0.200
'0:08.256',0.200
'0:08.257',0.192
'0:08.258',0.200
'0:08.260',0.208
'0:08.261',0.208
'0:08.263',0.215
'0:08.264',0.215
'0:08.265',0.215
'0:08.267',0.215
'0:08.268',0.208
'0:08.269',0.208
'0:08.271',0.200
'0:08.272',0.208
'0:08.274',0.208
'0:08.275',0.200
'0:08.276',0.208
'0:08.278',0.215
'0:08.279',0.215
'0:08.281',0.208
'0:08.282',0.208
'0:08.283',0.208
'0:08.285',0.208
'0:08.286',0.208
'0:08.288',0.208
'0:08.289',0.215
'0:08.290',0.223
'0:08.292',0.223
'0:08.293',0.208
'0:08.294',0.208
'0:08.296',0.223
'0:08.297',0.223
'0:08.299',0.200
'0:08.300',0.200
'0:08.301',0.208
'0:08.303',0.208
'0:08.304',0.208
'0:08.306',0.208
'0:08.307',0.208
'0:08.308',0.200
'0:08.310',0.208
'0:08.311',0.223
'0:08.313',0.231
'0:08.314',0.223
'0:08.315',0.231
'0:08.317',0.246
'0:08.318',0.246
'0:08.319',0.238
'0:08.321',0.238
'0:08.322',0.238
'0:08.324',0.231
'0:08.325',0.231
'0:08.326',0.231
'0:08.328',0.238
'0:08.329',0.231
'0:08.331',0.223
'0:08.332',0.223
'0:08.333',0.215
'0:08.335',0.215
'0:08.336',0.223
'0:08.338',0.223
'0:08.339',0.215
'0:08.340',0.223
'0:08.342',0.231
'0:08.343',0.231
'0:08.344',0.238
'0:08.346',0.238
'0:08.347',0.231
'0:08.349',0.231
'0:08.350',0.231
'0:08.351',0.231
'0:08.353',0.223
'0:08.354',0.223
'0:08.356',0.231
'0:08.357',0.223
'0:08.358',0.215
'0:08.360',0.223
'0:08.361',0.231
'0:08.363',0.223
'0:08.364',0.231
'0:08.365',0.231
'0:08.367',0.238
'0:08.368',0.262
'0:08.369',0.285
'0:08.371',0.300
'0:08.372',0.315
'0:08.374',0.323
'0:08.375',0.338
'0:08.376',0.331
'0:08.378',0.331
'0:08.379',0.346
'0:08.381',0.354
'0:08.382',0.346
'0:08.383',0.346
'0:08.385',0.362
'0:08.386',0.338
'0:08.388',0.300
'0:08.389',0.292
'0:08.390',0.262
'0:08.392',0.231
'0:08.393',0.223
'0:08.394',0.215
'0:08.396',0.169
'0:08.397',0.123
'0:08.399',0.092
'0:08.400',0.046
'0:08.401',0.008
'0:08.403',-0.023
'0:08.404',-0.069
'0:08.406',-0.123
'0:08.407',-0.185
'0:08.408',-0.238
'0:08.410',-0.308
'0:08.411',-0.354
'0:08.413',-0.415
'0:08.414',-0.477
'0:08.415',-0.523
'0:08.417',-0.508
'0:08.418',-0.477
'0:08.419',-0.462
'0:08.421',-0.462
'0:08.422',-0.446
'0:08.424',-0.446
'0:08.425',-0.438
'0:08.426',-0.400
'0:08.428',-0.369
'0:08.429',-0.346
'0:08.431',-0.315
'0:08.432',-0.285
'0:08.433',-0.269
'0:08.435',-0.231
'0:08.436',-0.200
'0:08.438',-0.146
'0:08.439',-0.092
'0:08.440',-0.062
'0:08.442',-0.023
'0:08.443',0.038
'0:08.444',0.085
'0:08.446',0.108
'0:08.447',0.100
'0:08.449',0.108
'0:08.450',0.138
'0:08.451',0.146
'0:08.453',0.146
'0:08.454',0.162
'0:08.456',0.169
'0:08.457',0.169
'0:08.458',0.177
'0:08.460',0.200
'0:08.461',0.208
'0:08.463',0.208
'0:08.464',0.215
'0:08.465',0.215
'0:08.467',0.223
'0:08.468',0.223
'0:08.469',0.223
'0:08.471',0.223
'0:08.472',0.215
'0:08.474',0.215
'0:08.475',0.223
'0:08.476',0.223
'0:08.478',0.231
'0:08.479',0.238
'0:08.481',0.238
'0:08.482',0.238
'0:08.483',0.246
'0:08.485',0.254
'0:08.486',0.246
'0:08.488',0.246
'0:08.489',0.246
'0:08.490',0.246
'0:08.492',0.246
'0:08.493',0.254
'0:08.494',0.254
'0:08.496',0.254
'0:08.497',0.246
'0:08.499',0.254
'0:08.500',0.246
'0:08.501',0.262
'0:08.503',0.262
'0:08.504',0.269
'0:08.506',0.285
'0:08.507',0.285
'0:08.508',0.262
'0:08.510',0.254
'0:08.511',0.269
'0:08.513',0.285
'0:08.514',0.269
'0:08.515',0.246
'0:08.517',0.238
'0:08.518',0.262
'0:08.519',0.262
'0:08.521',0.254
'0:08.522',0.254
'0:08.524',0.246
'0:08.525',0.254
'0:08.526',0.269
'0:08.528',0.269
'0:08.529',0.277
'0:08.531',0.277
'0:08.532',0.269
'0:08.533',0.269
'0:08.535',0.285
'0:08.536',0.285
'0:08.538',0.277
'0:08.539',0.277
'0:08.540',0.269
'0:08.542',0.277
'0:08.543',0.277
'0:08.544',0.285
'0:08.546',0.285
'0:08.547',0.285
'0:08.549',0.277
'0:08.550',0.277
'0:08.551',0.277
'0:08.553',0.277
'0:08.554',0.292
'0:08.556',0.285
'0:08.557',0.277
'0:08.558',0.277
'0:08.560',0.277
'0:08.561',0.269
'0:08.563',0.285
'0:08.564',0.300
'0:08.565',0.285
'0:08.567',0.292
'0:08.568',0.300
'0:08.569',0.315
'0:08.571',0.315
'0:08.572',0.323
'0:08.574',0.323
'0:08.575',0.323
'0:08.576',0.323
'0:08.578',0.331
'0:08.579',0.331
'0:08.581',0.315
'0:08.582',0.308
'0:08.583',0.308
'0:08.585',0.315
'0:08.586',0.315
'0:08.588',0.315
'0:08.589',0.308
'0:08.590',0.315
'0:08.592',0.323
'0:08.593',0.338
'0:08.594',0.338
'0:08.596',0.331
'0:08.597',0.338
'0:08.599',0.354
'0:08.600',0.362
'0:08.601',0.369
'0:08.603',0.377
'0:08.604',0.392
'0:08.606',0.392
'0:08.607',0.392
'0:08.608',0.392
'0:08.610',0.385
'0:08.611',0.400
'0:08.613',0.408
'0:08.614',0.415
'0:08.615',0.400
'0:08.617',0.408
'0:08.618',0.415
'0:08.619',0.415
'0:08.621',0.415
'0:08.622',0.415
'0:08.624',0.423
'0:08.625',0.423
'0:08.626',0.423
'0:08.628',0.431
'0:08.629',0.431
'0:08.631',0.454
'0:08.632',0.462
'0:08.633',0.454
'0:08.635',0.469
'0:08.636',0.469
'0:08.638',0.469
'0:08.639',0.469
'0:08.640',0.462
'0:08.642',0.454
'0:08.643',0.454
'0:08.644',0.477
'0:08.646',0.469
'0:08.647',0.462
'0:08.649',0.469
'0:08.650',0.477
'0:08.651',0.477
'0:08.653',0.477
'0:08.654',0.477
'0:08.656',0.469
'0:08.657',0.462
'0:08.658',0.469
'0:08.660',0.469
'0:08.661',0.454
'0:08.663',0.454
'0:08.664',0.462
'0:08.665',0.462
'0:08.667',0.446
'0:08.668',0.454
'0:08.669',0.462
'0:08.671',0.454
'0:08.672',0.454
'0:08.674',0.454
'0:08.675',0.446
'0:08.676',0.438
'0:08.678',0.446
'0:08.679',0.431
'0:08.681',0.423
'0:08.682',0.415
'0:08.683',0.423
'0:08.685',0.415
'0:08.686',0.415
'0:08.688',0.415
'0:08.689',0.408
'0:08.690',0.400
'0:08.692',0.400
'0:08.693',0.408
'0:08.694',0.400
'0:08.696',0.377
'0:08.697',0.377
'0:08.699',0.377
'0:08.700',0.377
'0:08.701',0.377
'0:08.703',0.354
'0:08.704',0.362
'0:08.706',0.362
'0:08.707',0.323
'0:08.708',0.323
'0:08.710',0.338
'0:08.711',0.346
'0:08.713',0.331
'0:08.714',0.308
'0:08.715',0.300
'0:08.717',0.308
'0:08.718',0.300
'0:08.719',0.285
'0:08.721',0.285
'0:08.722',0.285
'0:08.724',0.269
'0:08.725',0.269
'0:08.726',0.269
'0:08.728',0.254
'0:08.729',0.269
'0:08.731',0.262
'0:08.732',0.246
'0:08.733',0.246
'0:08.735',0.246
'0:08.736',0.254
'0:08.738',0.246
'0:08.739',0.238
'0:08.740',0.238
'0:08.742',0.238
'0:08.743',0.246
'0:08.744',0.238
'0:08.746',0.231
'0:08.747',0.231
'0:08.749',0.238
'0:08.750',0.215
'0:08.751',0.215
'0:08.753',0.215
'0:08.754',0.215
'0:08.756',0.208
'0:08.757',0.208
'0:08.758',0.215
'0:08.760',0.215
'0:08.761',0.223
'0:08.763',0.238
'0:08.764',0.223
'0:08.765',0.223
'0:08.767',0.223
'0:08.768',0.223
'0:08.769',0.208
'0:08.771',0.208
'0:08.772',0.208
'0:08.774',0.192
'0:08.775',0.192
'0:08.776',0.192
'0:08.778',0.200
'0:08.779',0.208
'0:08.781',0.192
'0:08.782',0.185
'0:08.783',0.192
'0:08.785',0.185
'0:08.786',0.185
'0:08.788',0.185
'0:08.789',0.192
'0:08.790',0.192
'0:08.792',0.185
'0:08.793',0.192
'0:08.794',0.200
'0:08.796',0.200
'0:08.797',0.192
'0:08.799',0.200
'0:08.800',0.200
'0:08.801',0.200
'0:08.803',0.215
'0:08.804',0.200
'0:08.806',0.192
'0:08.807',0.208
'0:08.808',0.208
'0:08.810',0.192
'0:08.811',0.192
'0:08.813',0.215
'0:08.814',0.200
'0:08.815',0.192
'0:08.817',0.192
'0:08.818',0.185
'0:08.819',0.177
'0:08.821',0.185
'0:08.822',0.177
'0:08.824',0.177
'0:08.825',0.177
'0:08.826',0.177
'0:08.828',0.177
'0:08.829',0.177
'0:08.831',0.177
'0:08.832',0.177
'0:08.833',0.169
'0:08.835',0.169
'0:08.836',0.177
'0:08.838',0.185
'0:08.839',0.177
'0:08.840',0.185
'0:08.842',0.192
'0:08.843',0.200
'0:08.844',0.192
'0:08.846',0.200
'0:08.847',0.192
'0:08.849',0.192
'0:08.850',0.192
'0:08.851',0.185
'0:08.853',0.192
'0:08.854',0.185
'0:08.856',0.177
'0:08.857',0.185
'0:08.858',0.185
'0:08.860',0.177
'0:08.861',0.162
'0:08.863',0.162
'0:08.864',0.169
'0:08.865',0.169
'0:08.867',0.177
'0:08.868',0.169
'0:08.869',0.177
'0:08.871',0.185
'0:08.872',0.185
'0:08.874',0.192
'0:08.875',0.192
'0:08.876',0.192
'0:08.878',0.192
'0:08.879',0.200
'0:08.881',0.192
'0:08.882',0.185
'0:08.883',0.192
'0:08.885',0.200
'0:08.886',0.200
'0:08.888',0.192
'0:08.889',0.192
'0:08.890',0.192
'0:08.892',0.192
'0:08.893',0.200
'0:08.894',0.200
'0:08.896',0.208
'0:08.897',0.200
'0:08.899',0.192
'0:08.900',0.185
'0:08.901',0.200
'0:08.903',0.200
'0:08.904',0.200
'0:08.906',0.192
'0:08.907',0.192
'0:08.908',0.192
'0:08.910',0.192
'0:08.911',0.200
'0:08.913',0.192
'0:08.914',0.192
'0:08.915',0.192
'0:08.917',0.192
'0:08.918',0.192
'0:08.919',0.185
'0:08.921',0.192
'0:08.922',0.185
'0:08.924',0.169
'0:08.925',0.169
'0:08.926',0.177
'0:08.928',0.185
'0:08.929',0.185
'0:08.931',0.192
'0:08.932',0.192
'0:08.933',0.192
'0:08.935',0.192
'0:08.936',0.200
'0:08.938',0.192
'0:08.939',0.192
'0:08.940',0.192
'0:08.942',0.185
'0:08.943',0.185
'0:08.944',0.192
'0:08.946',0.185
'0:08.947',0.192
'0:08.949',0.192
'0:08.950',0.192
'0:08.951',0.185
'0:08.953',0.208
'0:08.954',0.215
'0:08.956',0.192
'0:08.957',0.200
'0:08.958',0.208
'0:08.960',0.200
'0:08.961',0.208
'0:08.963',0.215
'0:08.964',0.208
'0:08.965',0.208
'0:08.967',0.208
'0:08.968',0.208
'0:08.969',0.208
'0:08.971',0.208
'0:08.972',0.200
'0:08.974',0.185
'0:08.975',0.185
'0:08.976',0.192
'0:08.978',0.192
'0:08.979',0.192
'0:08.981',0.185
'0:08.982',0.185
'0:08.983',0.185
'0:08.985',0.192
'0:08.986',0.200
'0:08.988',0.200
'0:08.989',0.200
'0:08.990',0.200
'0:08.992',0.208
'0:08.993',0.223
'0:08.994',0.223
'0:08.996',0.215
'0:08.997',0.223
'0:08.999',0.215
'0:09.000',0.215
'0:09.001',0.215
'0:09.003',0.231
'0:09.004',0.231
'0:09.006',0.215
'0:09.007',0.208
'0:09.008',0.215
'0:09.010',0.200
'0:09.011',0.208
'0:09.013',0.200
'0:09.014',0.192
'0:09.015',0.208
'0:09.017',0.215
'0:09.018',0.223
'0:09.019',0.223
'0:09.021',0.223
'0:09.022',0.223
'0:09.024',0.215
'0:09.025',0.215
'0:09.026',0.223
'0:09.028',0.231
'0:09.029',0.223
'0:09.031',0.215
'0:09.032',0.215
'0:09.033',0.215
'0:09.035',0.215
'0:09.036',0.215
'0:09.038',0.208
'0:09.039',0.215
'0:09.040',0.223
'0:09.042',0.215
'0:09.043',0.215
'0:09.044',0.223
'0:09.046',0.223
'0:09.047',0.215
'0:09.049',0.215
'0:09.050',0.215
'0:09.051',0.215
'0:09.053',0.215
'0:09.054',0.215
'0:09.056',0.215
'0:09.057',0.208
'0:09.058',0.208
'0:09.060',0.215
'0:09.061',0.215
'0:09.063',0.215
'0:09.064',0.208
'0:09.065',0.208
'0:09.067',0.208
'0:09.068',0.208
'0:09.069',0.208
'0:09.071',0.208
'0:09.072',0.200
'0:09.074',0.208
'0:09.075',0.200
'0:09.076',0.200
'0:09.078',0.192
'0:09.079',0.192
'0:09.081',0.208
'0:09.082',0.192
'0:09.083',0.208
'0:09.085',0.208
'0:09.086',0.200
'0:09.088',0.200
'0:09.089',0.208
'0:09.090',0.215
'0:09.092',0.192
'0:09.093',0.200
'0:09.094',0.215
'0:09.096',0.208
'0:09.097',0.200
'0:09.099',0.208
'0:09.100',0.200
'0:09.101',0.192
'0:09.103',0.208
'0:09.104',0.208
'0:09.106',0.192
'0:09.107',0.208
'0:09.108',0.192
'0:09.110',0.200
'0:09.111',0.215
'0:09.113',0.223
'0:09.114',0.208
'0:09.115',0.215
'0:09.117',0.215
'0:09.118',0.208
'0:09.119',0.208
'0:09.121',0.200
'0:09.122',0.192
'0:09.124',0.192
'0:09.125',0.200
'0:09.126',0.200
'0:09.128',0.208
'0:09.129',0.208
'0:09.131',0.215
'0:09.132',0.215
'0:09.133',0.223
'0:09.135',0.215
'0:09.136',0.223
'0:09.138',0.223
'0:09.139',0.215
'0:09.140',0.215
'0:09.142',0.223
'0:09.143',0.231
'0:09.144',0.223
'0:09.146',0.215
'0:09.147',0.215
'0:09.149',0.208
'0:09.150',0.208
'0:09.151',0.200
'0:09.153',0.208
'0:09.154',0.215
'0:09.156',0.223
'0:09.157',0.223
'0:09.158',0.223
'0:09.160',0.246
'0:09.161',0.254
'0:09.163',0.262
'0:09.164',0.262
'0:09.165',0.262
'0:09.167',0.262
'0:09.168',0.262
'0:09.169',0.262
'0:09.171',0.269
'0:09.172',0.269
'0:09.174',0.269
'0:09.175',0.254
'0:09.176',0.254
'0:09.178',0.262
'0:09.179',0.254
'0:09.181',0.238
'0:09.182',0.246
'0:09.183',0.254
'0:09.185',0.246
'0:09.186',0.262
'0:09.188',0.262
'0:09.189',0.254
'0:09.190',0.262
'0:09.192',0.269
'0:09.193',0.262
'0:09.194',0.277
'0:09.196',0.292
'0:09.197',0.277
'0:09.199',0.277
'0:09.200',0.285
'0:09.201',0.292
'0:09.203',0.285
'0:09.204',0.292
'0:09.206',0.292
'0:09.207',0.300
'0:09.208',0.300
'0:09.210',0.300
'0:09.211',0.300
'0:09.213',0.308
'0:09.214',0.315
'0:09.215',0.300
'0:09.217',0.292
'0:09.218',0.300
'0:09.219',0.308
'0:09.221',0.300
'0:09.222',0.300
'0:09.224',0.300
'0:09.225',0.285
'0:09.226',0.308
'0:09.228',0.308
'0:09.229',0.315
'0:09.231',0.308
'0:09.232',0.315
'0:09.233',0.308
'0:09.235',0.315
'0:09.236',0.315
'0:09.238',0.323
'0:09.239',0.331
'0:09.240',0.331
'0:09.242',0.315
'0:09.243',0.315
'0:09.244',0.315
'0:09.246',0.315
'0:09.247',0.315
'0:09.249',0.315
'0:09.250',0.308
'0:09.251',0.308
'0:09.253',0.315
'0:09.254',0.308
'0:09.256',0.300
'0:09.257',0.308
'0:09.258',0.308
'0:09.260',0.285
'0:09.261',0.292
'0:09.263',0.285
'0:09.264',0.285
'0:09.265',0.277
'0:09.267',0.269
'0:09.268',0.262
'0:09.269',0.262
'0:09.271',0.269
'0:09.272',0.262
'0:09.274',0.246
'0:09.275',0.246
'0:09.276',0.246
'0:09.278',0.246
'0:09.279',0.246
'0:09.281',0.231
'0:09.282',0.231
'0:09.283',0.215
'0:09.285',0.223
'0:09.286',0.223
'0:09.288',0.223
'0:09.289',0.208
'0:09.290',0.223
'0:09.292',0.223
'0:09.293',0.223
'0:09.294',0.215
'0:09.296',0.208
'0:09.297',0.215
'0:09.299',0.208
'0:09.300',0.223
'0:09.301',0.223
'0:09.303',0.215
'0:09.304',0.215
'0:09.306',0.223
'0:09.307',0.223
'0:09.308',0.223
'0:09.310',0.231
'0:09.311',0.238
'0:09.313',0.238
'0:09.314',0.223
'0:09.315',0.223
'0:09.317',0.238
'0:09.318',0.254
'0:09.319',0.246
'0:09.321',0.254
'0:09.322',0.262
'0:09.324',0.262
'0:09.325',0.246
'0:09.326',0.246
'0:09.328',0.262
'0:09.329',0.262
'0:09.331',0.262
'0:09.332',0.262
'0:09.333',0.254
'0:09.335',0.254
'0:09.336',0.269
'0:09.338',0.285
'0:09.339',0.285
'0:09.340',0.300
'0:09.342',0.315
'0:09.343',0.331
'0:09.344',0.346
'0:09.346',0.369
'0:09.347',0.385
'0:09.349',0.400
'0:09.350',0.408
'0:09.351',0.431
'0:09.353',0.446
'0:09.354',0.477
'0:09.356',0.492
'0:09.357',0.500
'0:09.358',0.515
'0:09.360',0.546
'0:09.361',0.569
'0:09.363',0.562
'0:09.364',0.562
'0:09.365',0.554
'0:09.367',0.554
'0:09.368',0.554
'0:09.369',0.546
'0:09.371',0.546
'0:09.372',0.531
'0:09.374',0.508
'0:09.375',0.492
'0:09.376',0.477
'0:09.378',0.446
'0:09.379',0.415
'0:09.381',0.392
'0:09.382',0.377
'0:09.383',0.369
'0:09.385',0.369
'0:09.386',0.377
'0:09.388',0.362
'0:09.389',0.354
'0:09.390',0.346
'0:09.392',0.346
'0:09.393',0.338
'0:09.394',0.338
'0:09.396',0.323
'0:09.397',0.323
'0:09.399',0.323
'0:09.400',0.323
'0:09.401',0.308
'0:09.403',0.315
'0:09.404',0.308
'0:09.406',0.308
'0:09.407',0.308
'0:09.408',0.308
'0:09.410',0.300
'0:09.411',0.292
'0:09.413',0.292
'0:09.414',0.292
'0:09.415',0.285
'0:09.417',0.269
'0:09.418',0.269
'0:09.419',0.262
'0:09.421',0.246
'0:09.422',0.238
'0:09.424',0.238
'0:09.425',0.231
'0:09.426',0.231
'0:09.428',0.238
'0:09.429',0.231
'0:09.431',0.223
'0:09.432',0.215
'0:09.433',0.208
'0:09.435',0.208
'0:09.436',0.208
'0:09.438',0.208
'0:09.439',0.192
'0:09.440',0.200
'0:09.442',0.200
'0:09.443',0.185
'0:09.444',0.208
'0:09.446',0.208
'0:09.447',0.200
'0:09.449',0.208
'0:09.450',0.208
'0:09.451',0.200
'0:09.453',0.208
'0:09.454',0.215
'0:09.456',0.200
'0:09.457',0.200
'0:09.458',0.208
'0:09.460',0.200
'0:09.461',0.200
'0:09.463',0.208
'0:09.464',0.215
'0:09.465',0.208
'0:09.467',0.208
'0:09.468',0.192
'0:09.469',0.200
'0:09.471',0.200
'0:09.472',0.200
'0:09.474',0.200
'0:09.475',0.200
'0:09.476',0.192
'0:09.478',0.192
'0:09.479',0.192
'0:09.481',0.185
'0:09.482',0.185
'0:09.483',0.185
'0:09.485',0.200
'0:09.486',0.200
'0:09.488',0.200
'0:09.489',0.200
'0:09.490',0.200
'0:09.492',0.200
'0:09.493',0.200
'0:09.494',0.200
'0:09.496',0.208
'0:09.497',0.200
'0:09.499',0.200
'0:09.500',0.192
'0:09.501',0.200
'0:09.503',0.200
'0:09.504',0.208
'0:09.506',0.192
'0:09.507',0.185
'0:09.508',0.192
'0:09.510',0.192
'0:09.511',0.192
'0:09.513',0.185
'0:09.514',0.185
'0:09.515',0.185
'0:09.517',0.192
'0:09.518',0.185
'0:09.519',0.185
'0:09.521',0.185
'0:09.522',0.185
'0:09.524',0.192
'0:09.525',0.192
'0:09.526',0.185
'0:09.528',0.200
'0:09.529',0.192
'0:09.531',0.192
'0:09.532',0.192
'0:09.533',0.185
'0:09.535',0.185
'0:09.536',0.177
'0:09.538',0.177
'0:09.539',0.177
'0:09.540',0.169
'0:09.542',0.177
'0:09.543',0.185
'0:09.544',0.185
'0:09.546',0.177
'0:09.547',0.185
'0:09.549',0.185
'0:09.550',0.177
'0:09.551',0.185
'0:09.553',0.192
'0:09.554',0.185
'0:09.556',0.177
'0:09.557',0.177
'0:09.558',0.177
'0:09.560',0.169
'0:09.561',0.177
'0:09.563',0.162
'0:09.564',0.162
'0:09.565',0.177
'0:09.567',0.169
'0:09.568',0.162
'0:09.569',0.169
'0:09.571',0.177
'0:09.572',0.169
'0:09.574',0.169
'0:09.575',0.185
'0:09.576',0.177
'0:09.578',0.169
'0:09.579',0.169
'0:09.581',0.162
'0:09.582',0.169
'0:09.583',0.185
'0:09.585',0.177
'0:09.586',0.169
'0:09.588',0.177
'0:09.589',0.177
'0:09.590',0.162
'0:09.592',0.169
'0:09.593',0.169
'0:09.594',0.162
'0:09.596',0.169
'0:09.597',0.162
'0:09.599',0.146
'0:09.600',0.154
'0:09.601',0.154
'0:09.603',0.146
'0:09.604',0.146
'0:09.606',0.138
'0:09.607',0.123
'0:09.608',0.123
'0:09.610',0.131
'0:09.611',0.131
'0:09.613',0.123
'0:09.614',0.123
'0:09.615',0.115
'0:09.617',0.100
'0:09.618',0.100
'0:09.619',0.100
'0:09.621',0.108
'0:09.622',0.108
'0:09.624',0.092
'0:09.625',0.085
'0:09.626',0.092
'0:09.628',0.092
'0:09.629',0.077
'0:09.631',0.077
'0:09.632',0.092
'0:09.633',0.100
'0:09.635',0.092
'0:09.636',0.092
'0:09.638',0.092
'0:09.639',0.100
'0:09.640',0.100
'0:09.642',0.100
'0:09.643',0.115
'0:09.644',0.123
'0:09.646',0.115
'0:09.647',0.115
'0:09.649',0.123
'0:09.650',0.131
'0:09.651',0.123
'0:09.653',0.131
'0:09.654',0.131
'0:09.656',0.123
'0:09.657',0.131
'0:09.658',0.138
'0:09.660',0.131
'0:09.661',0.123
'0:09.663',0.131
'0:09.664',0.138
'0:09.665',0.138
'0:09.667',0.138
'0:09.668',0.146
'0:09.669',0.154
'0:09.671',0.146
'0:09.672',0.154
'0:09.674',0.162
'0:09.675',0.154
'0:09.676',0.169
'0:09.678',0.169
'0:09.679',0.162
'0:09.681',0.162
'0:09.682',0.177
'0:09.683',0.177
'0:09.685',0.162
'0:09.686',0.169
'0:09.688',0.185
'0:09.689',0.177
'0:09.690',0.185
'0:09.692',0.185
'0:09.693',0.192
'0:09.694',0.192
'0:09.696',0.192
'0:09.697',0.192
'0:09.699',0.192
'0:09.700',0.192
'0:09.701',0.208
'0:09.703',0.208
'0:09.704',0.208
'0:09.706',0.200
'0:09.707',0.208
'0:09.708',0.215
'0:09.710',0.208
'0:09.711',0.215
'0:09.713',0.208
'0:09.714',0.200
'0:09.715',0.200
'0:09.717',0.208
'0:09.718',0.208
'0:09.719',0.215
'0:09.721',0.208
'0:09.722',0.215
'0:09.724',0.215
'0:09.725',0.208
'0:09.726',0.208
'0:09.728',0.215
'0:09.729',0.223
'0:09.731',0.215
'0:09.732',0.215
'0:09.733',0.215
'0:09.735',0.223
'0:09.736',0.208
'0:09.738',0.215
'0:09.739',0.215
'0:09.740',0.200
'0:09.742',0.200
'0:09.743',0.200
'0:09.744',0.192
'0:09.746',0.200
'0:09.747',0.200
'0:09.749',0.200
'0:09.750',0.192
'0:09.751',0.208
'0:09.753',0.208
'0:09.754',0.200
'0:09.756',0.192
'0:09.757',0.208
'0:09.758',0.215
'0:09.760',0.223
'0:09.761',0.231
'0:09.763',0.231
'0:09.764',0.223
'0:09.765',0.223
'0:09.767',0.223
'0:09.768',0.215
'0:09.769',0.215
'0:09.771',0.223
'0:09.772',0.208
'0:09.774',0.208
'0:09.775',0.215
'0:09.776',0.208
'0:09.778',0.215
'0:09.779',0.215
'0:09.781',0.215
'0:09.782',0.215
'0:09.783',0.215
'0:09.785',0.215
'0:09.786',0.223
'0:09.788',0.231
